# Gnuplot File : positions of 6 particle(s) Monitored
# 1st Column : time, others : particle(s) number 0  1  2  3 4 5
0  962.612 663.74 998.005 683.434 1034.75 703.878 1072.91 725.114 1112.59 747.191 1153.86 770.16
0.01  962.612 663.74 998.005 683.434 1034.75 703.878 1072.91 725.114 1112.59 747.191 1153.86 770.16
0.02  962.438 663.643 997.919 683.386 1034.7 703.854 1072.89 725.103 1112.58 747.186 1153.86 770.157
0.03  962.264 663.547 997.772 683.305 1034.6 703.797 1072.82 725.066 1112.54 747.164 1153.83 770.144
0.04  962.09 663.45 997.599 683.208 1034.45 703.714 1072.71 725.002 1112.45 747.117 1153.78 770.112
0.05  961.917 663.353 997.419 683.108 1034.28 703.617 1072.55 724.915 1112.32 747.046 1153.68 770.057
0.06  961.743 663.257 997.238 683.008 1034.09 703.514 1072.37 724.815 1112.16 746.954 1153.54 769.978
0.07  961.57 663.16 997.057 682.907 1033.9 703.409 1072.18 724.709 1111.97 746.85 1153.36 769.88
0.08  961.396 663.064 996.876 682.806 1033.71 703.304 1071.98 724.599 1111.77 746.738 1153.16 769.769
0.09  961.223 662.967 996.693 682.704 1033.52 703.197 1071.78 724.487 1111.56 746.62 1152.94 769.646
0.1  961.05 662.871 996.509 682.602 1033.33 703.089 1071.58 724.371 1111.34 746.496 1152.7 769.514
0.11  960.876 662.774 996.323 682.498 1033.13 702.977 1071.36 724.251 1111.1 746.365 1152.45 769.371
0.12  960.704 662.678 996.134 682.393 1032.92 702.862 1071.13 724.124 1110.85 746.226 1152.17 769.216
0.13  960.531 662.582 995.941 682.286 1032.7 702.742 1070.89 723.991 1110.58 746.077 1151.87 769.051
0.14  960.359 662.486 995.744 682.176 1032.48 702.617 1070.64 723.85 1110.3 745.919 1151.55 768.874
0.15  960.187 662.391 995.544 682.065 1032.25 702.489 1070.37 723.703 1110 745.753 1151.22 768.689
0.16  960.015 662.295 995.341 681.952 1032.01 702.357 1070.1 723.552 1109.69 745.582 1150.88 768.498
0.17  959.844 662.2 995.138 681.839 1031.77 702.224 1069.83 723.399 1109.38 745.409 1150.53 768.305
0.18  959.672 662.104 994.935 681.726 1031.54 702.092 1069.55 723.247 1109.07 745.237 1150.19 768.114
0.19  959.501 662.009 994.735 681.614 1031.3 701.962 1069.29 723.098 1108.77 745.07 1149.85 767.928
0.2  959.33 661.914 994.537 681.505 1031.08 701.836 1069.03 722.955 1108.49 744.91 1149.54 767.752
0.21  959.158 661.818 994.343 681.397 1030.86 701.714 1068.78 722.818 1108.21 744.758 1149.24 767.585
0.22  958.986 661.723 994.154 681.291 1030.65 701.597 1068.55 722.689 1107.96 744.617 1148.96 767.431
0.23  958.814 661.627 993.968 681.188 1030.44 701.485 1068.33 722.568 1107.72 744.486 1148.71 767.29
0.24  958.641 661.531 993.786 681.087 1030.25 701.378 1068.13 722.454 1107.51 744.365 1148.48 767.162
0.25  958.468 661.434 993.608 680.987 1030.07 701.275 1067.94 722.348 1107.31 744.254 1148.27 767.046
0.26  958.294 661.338 993.432 680.89 1029.89 701.176 1067.76 722.248 1107.12 744.152 1148.08 766.941
0.27  958.12 661.241 993.26 680.794 1029.72 701.081 1067.59 722.153 1106.96 744.058 1147.91 766.848
0.28  957.946 661.144 993.089 680.699 1029.55 700.989 1067.43 722.064 1106.8 743.972 1147.76 766.764
0.29  957.772 661.047 992.921 680.605 1029.39 700.9 1067.28 721.979 1106.66 743.892 1147.62 766.688
0.3  957.597 660.95 992.754 680.512 1029.24 700.813 1067.13 721.898 1106.52 743.816 1147.5 766.618
0.31  957.422 660.852 992.588 680.42 1029.08 700.727 1066.99 721.819 1106.39 743.744 1147.38 766.553
0.32  957.247 660.755 992.423 680.328 1028.93 700.642 1066.85 721.742 1106.27 743.674 1147.27 766.49
0.33  957.072 660.657 992.257 680.236 1028.78 700.557 1066.71 721.664 1106.14 743.604 1147.15 766.427
0.34  956.897 660.56 992.091 680.143 1028.62 700.471 1066.57 721.586 1106.01 743.532 1147.04 766.361
0.35  956.722 660.463 991.923 680.05 1028.47 700.384 1066.42 721.505 1105.88 743.458 1146.91 766.292
0.36  956.547 660.366 991.754 679.956 1028.31 700.295 1066.27 721.421 1105.73 743.378 1146.78 766.217
0.37  956.373 660.269 991.584 679.861 1028.14 700.203 1066.11 721.332 1105.58 743.293 1146.63 766.135
0.38  956.199 660.172 991.41 679.765 1027.97 700.109 1065.95 721.239 1105.42 743.201 1146.47 766.044
0.39  956.026 660.075 991.235 679.667 1027.8 700.011 1065.77 721.141 1105.24 743.102 1146.29 765.945
0.4  955.853 659.979 991.058 679.568 1027.61 699.91 1065.58 721.037 1105.05 742.996 1146.09 765.836
0.41  955.681 659.883 990.878 679.468 1027.43 699.806 1065.39 720.929 1104.84 742.883 1145.88 765.718
0.42  955.509 659.788 990.696 679.367 1027.23 699.698 1065.18 720.815 1104.63 742.763 1145.65 765.591
0.43  955.338 659.692 990.513 679.265 1027.04 699.589 1064.97 720.697 1104.4 742.637 1145.41 765.456
0.44  955.167 659.597 990.328 679.162 1026.84 699.477 1064.75 720.576 1104.16 742.505 1145.16 765.314
0.45  954.996 659.503 990.142 679.059 1026.63 699.363 1064.53 720.451 1103.92 742.369 1144.89 765.167
0.46  954.826 659.408 989.955 678.955 1026.42 699.247 1064.3 720.324 1103.67 742.23 1144.62 765.016
0.47  954.656 659.313 989.768 678.851 1026.22 699.132 1064.07 720.196 1103.42 742.089 1144.34 764.862
0.48  954.487 659.219 989.581 678.747 1026.01 699.015 1063.84 720.067 1103.16 741.948 1144.06 764.707
0.49  954.317 659.124 989.394 678.643 1025.8 698.899 1063.61 719.939 1102.91 741.806 1143.79 764.553
0.5  954.147 659.03 989.207 678.539 1025.59 698.784 1063.38 719.812 1102.66 741.667 1143.51 764.401
0.51  953.977 658.935 989.022 678.436 1025.39 698.67 1063.16 719.687 1102.41 741.53 1143.25 764.252
0.52  953.806 658.84 988.838 678.333 1025.19 698.558 1062.94 719.564 1102.17 741.397 1142.99 764.109
0.53  953.636 658.745 988.655 678.231 1024.99 698.448 1062.72 719.445 1101.94 741.269 1142.74 763.971
0.54  953.465 658.65 988.473 678.13 1024.79 698.34 1062.51 719.329 1101.72 741.145 1142.5 763.839
0.55  953.293 658.555 988.293 678.03 1024.6 698.234 1062.31 719.217 1101.51 741.026 1142.28 763.714
0.56  953.121 658.459 988.115 677.931 1024.42 698.13 1062.12 719.108 1101.3 740.913 1142.07 763.595
0.57  952.949 658.363 987.937 677.832 1024.23 698.028 1061.93 719.004 1101.11 740.805 1141.87 763.483
0.58  952.776 658.267 987.761 677.734 1024.05 697.928 1061.75 718.902 1100.92 740.702 1141.68 763.378
0.59  952.603 658.171 987.586 677.636 1023.88 697.831 1061.57 718.804 1100.75 740.603 1141.5 763.278
0.6  952.43 658.074 987.411 677.539 1023.7 697.734 1061.4 718.708 1100.57 740.507 1141.32 763.182
0.61  952.256 657.978 987.238 677.443 1023.53 697.639 1061.23 718.614 1100.41 740.414 1141.16 763.09
0.62  952.082 657.881 987.064 677.346 1023.36 697.544 1061.06 718.521 1100.24 740.324 1141 763.001
0.63  951.908 657.784 986.891 677.25 1023.19 697.45 1060.9 718.429 1100.08 740.234 1140.84 762.913
0.64  951.734 657.687 986.718 677.154 1023.02 697.356 1060.73 718.338 1099.92 740.144 1140.68 762.825
0.65  951.561 657.591 986.545 677.057 1022.86 697.262 1060.57 718.245 1099.76 740.054 1140.52 762.736
0.66  951.387 657.494 986.371 676.96 1022.68 697.166 1060.4 718.152 1099.59 739.961 1140.36 762.645
0.67  951.214 657.398 986.196 676.863 1022.51 697.07 1060.23 718.056 1099.42 739.867 1140.19 762.551
0.68  951.041 657.301 986.021 676.766 1022.34 696.973 1060.05 717.959 1099.25 739.769 1140.01 762.453
0.69  950.868 657.205 985.845 676.668 1022.16 696.874 1059.87 717.859 1099.07 739.669 1139.83 762.351
0.7  950.696 657.11 985.669 676.57 1021.98 696.774 1059.69 717.757 1098.88 739.564 1139.64 762.244
0.71  950.524 657.014 985.491 676.471 1021.8 696.672 1059.5 717.652 1098.68 739.456 1139.44 762.133
0.72  950.353 656.919 985.313 676.372 1021.61 696.569 1059.31 717.545 1098.48 739.344 1139.23 762.016
0.73  950.182 656.824 985.134 676.272 1021.42 696.465 1059.11 717.435 1098.28 739.229 1139.01 761.895
0.74  950.011 656.729 984.954 676.172 1021.23 696.359 1058.91 717.323 1098.06 739.11 1138.79 761.77
0.75  949.841 656.634 984.774 676.072 1021.04 696.252 1058.7 717.209 1097.85 738.989 1138.55 761.641
0.76  949.671 656.539 984.594 675.972 1020.85 696.144 1058.5 717.094 1097.62 738.866 1138.32 761.509
0.77  949.501 656.445 984.414 675.871 1020.65 696.036 1058.29 716.977 1097.4 738.741 1138.08 761.375
0.78  949.332 656.351 984.233 675.771 1020.46 695.927 1058.08 716.86 1097.17 738.615 1137.83 761.24
0.79  949.162 656.256 984.052 675.67 1020.26 695.819 1057.87 716.743 1096.95 738.488 1137.59 761.105
0.8  948.993 656.162 983.872 675.57 1020.07 695.71 1057.66 716.626 1096.72 738.363 1137.35 760.97
0.81  948.823 656.068 983.692 675.47 1019.87 695.602 1057.45 716.51 1096.5 738.238 1137.11 760.836
0.82  948.653 655.973 983.512 675.37 1019.68 695.495 1057.24 716.394 1096.27 738.115 1136.87 760.705
0.83  948.483 655.878 983.332 675.27 1019.49 695.388 1057.03 716.281 1096.06 737.993 1136.64 760.576
0.84  948.313 655.784 983.154 675.17 1019.3 695.282 1056.83 716.169 1095.84 737.875 1136.41 760.45
0.85  948.143 655.689 982.975 675.071 1019.11 695.178 1056.64 716.058 1095.63 737.758 1136.19 760.328
0.86  947.972 655.594 982.797 674.972 1018.92 695.074 1056.44 715.95 1095.43 737.645 1135.98 760.209
0.87  947.801 655.499 982.62 674.873 1018.74 694.972 1056.25 715.843 1095.23 737.534 1135.77 760.094
0.88  947.629 655.403 982.443 674.775 1018.56 694.87 1056.06 715.739 1095.04 737.426 1135.57 759.982
0.89  947.458 655.308 982.267 674.677 1018.38 694.77 1055.88 715.636 1094.85 737.32 1135.38 759.873
0.9  947.286 655.212 982.091 674.579 1018.2 694.67 1055.69 715.534 1094.66 737.217 1135.19 759.767
0.91  947.114 655.116 981.915 674.481 1018.02 694.571 1055.51 715.434 1094.48 737.115 1135 759.663
0.92  946.942 655.021 981.739 674.383 1017.84 694.472 1055.33 715.334 1094.3 737.014 1134.82 759.561
0.93  946.77 654.925 981.563 674.285 1017.67 694.374 1055.16 715.235 1094.12 736.914 1134.63 759.46
0.94  946.598 654.829 981.388 674.188 1017.49 694.276 1054.98 715.136 1093.94 736.814 1134.45 759.359
0.95  946.425 654.733 981.212 674.09 1017.31 694.177 1054.8 715.037 1093.76 736.714 1134.27 759.259
0.96  946.253 654.638 981.037 673.992 1017.14 694.079 1054.62 714.938 1093.58 736.614 1134.09 759.157
0.97  946.082 654.542 980.861 673.894 1016.96 693.98 1054.44 714.838 1093.39 736.513 1133.9 759.054
0.98  945.91 654.447 980.685 673.796 1016.78 693.881 1054.26 714.737 1093.21 736.41 1133.72 758.949
0.99  945.739 654.351 980.508 673.698 1016.6 693.781 1054.08 714.634 1093.02 736.305 1133.52 758.842
1  945.568 654.256 980.332 673.6 1016.42 693.68 1053.89 714.531 1092.83 736.199 1133.33 758.732
1.01  945.397 654.161 980.155 673.502 1016.24 693.578 1053.7 714.426 1092.64 736.091 1133.13 758.621
1.02  945.226 654.066 979.978 673.403 1016.05 693.476 1053.51 714.32 1092.44 735.981 1132.92 758.506
1.03  945.056 653.971 979.801 673.305 1015.87 693.374 1053.32 714.213 1092.24 735.869 1132.71 758.389
1.04  944.886 653.877 979.624 673.206 1015.68 693.27 1053.12 714.105 1092.03 735.755 1132.5 758.27
1.05  944.716 653.782 979.446 673.107 1015.49 693.166 1052.93 713.995 1091.83 735.64 1132.28 758.149
1.06  944.546 653.688 979.269 673.009 1015.31 693.062 1052.73 713.885 1091.62 735.524 1132.06 758.027
1.07  944.377 653.593 979.091 672.91 1015.12 692.957 1052.53 713.775 1091.41 735.407 1131.84 757.903
1.08  944.207 653.499 978.913 672.811 1014.93 692.852 1052.33 713.663 1091.2 735.289 1131.61 757.778
1.09  944.038 653.405 978.736 672.712 1014.74 692.747 1052.13 713.552 1090.98 735.171 1131.39 757.653
1.1  943.869 653.311 978.558 672.613 1014.55 692.643 1051.93 713.441 1090.77 735.053 1131.16 757.529
1.11  943.699 653.216 978.381 672.515 1014.37 692.538 1051.73 713.33 1090.56 734.936 1130.94 757.405
1.12  943.53 653.122 978.204 672.416 1014.18 692.434 1051.53 713.22 1090.35 734.819 1130.72 757.281
1.13  943.36 653.028 978.027 672.317 1013.99 692.33 1051.34 713.11 1090.14 734.704 1130.5 757.16
1.14  943.191 652.933 977.85 672.219 1013.81 692.226 1051.14 713.001 1089.94 734.589 1130.28 757.039
1.15  943.021 652.839 977.673 672.121 1013.62 692.123 1050.95 712.893 1089.74 734.476 1130.07 756.921
1.16  942.851 652.744 977.496 672.022 1013.44 692.021 1050.76 712.786 1089.53 734.365 1129.86 756.804
1.17  942.681 652.65 977.32 671.924 1013.25 691.919 1050.56 712.68 1089.34 734.254 1129.66 756.689
1.18  942.51 652.555 977.143 671.826 1013.07 691.817 1050.38 712.575 1089.14 734.145 1129.45 756.576
1.19  942.34 652.46 976.967 671.728 1012.89 691.716 1050.19 712.471 1088.95 734.038 1129.25 756.465
1.2  942.17 652.365 976.791 671.63 1012.71 691.616 1050 712.368 1088.76 733.931 1129.05 756.355
1.21  941.999 652.27 976.615 671.532 1012.53 691.515 1049.82 712.265 1088.57 733.825 1128.86 756.246
1.22  941.829 652.175 976.44 671.434 1012.35 691.415 1049.63 712.162 1088.38 733.72 1128.67 756.139
1.23  941.658 652.081 976.264 671.337 1012.17 691.315 1049.45 712.06 1088.19 733.616 1128.47 756.031
1.24  941.487 651.986 976.088 671.239 1011.99 691.215 1049.27 711.958 1088 733.511 1128.28 755.924
1.25  941.317 651.891 975.912 671.141 1011.81 691.116 1049.08 711.856 1087.81 733.407 1128.09 755.817
1.26  941.146 651.796 975.736 671.043 1011.63 691.016 1048.9 711.754 1087.63 733.302 1127.89 755.71
1.27  940.976 651.701 975.561 670.945 1011.45 690.915 1048.71 711.651 1087.44 733.197 1127.7 755.601
1.28  940.806 651.606 975.385 670.847 1011.27 690.815 1048.53 711.548 1087.25 733.091 1127.5 755.492
1.29  940.636 651.512 975.209 670.75 1011.09 690.714 1048.34 711.444 1087.05 732.984 1127.31 755.382
1.3  940.466 651.417 975.033 670.652 1010.91 690.614 1048.16 711.34 1086.86 732.876 1127.11 755.271
1.31  940.296 651.323 974.857 670.554 1010.73 690.512 1047.97 711.235 1086.66 732.768 1126.9 755.158
1.32  940.126 651.228 974.681 670.456 1010.54 690.411 1047.78 711.13 1086.47 732.658 1126.7 755.044
1.33  939.957 651.134 974.505 670.358 1010.36 690.309 1047.59 711.024 1086.27 732.548 1126.49 754.929
1.34  939.788 651.04 974.329 670.26 1010.18 690.207 1047.4 710.917 1086.07 732.436 1126.28 754.812
1.35  939.618 650.946 974.153 670.162 1009.99 690.104 1047.2 710.81 1085.87 732.324 1126.07 754.695
1.36  939.449 650.852 973.977 670.064 1009.81 690.001 1047.01 710.702 1085.66 732.211 1125.86 754.577
1.37  939.28 650.757 973.801 669.966 1009.62 689.899 1046.82 710.595 1085.46 732.098 1125.65 754.458
1.38  939.111 650.663 973.625 669.868 1009.44 689.796 1046.62 710.487 1085.26 731.985 1125.43 754.339
1.39  938.942 650.569 973.449 669.77 1009.25 689.693 1046.43 710.379 1085.05 731.871 1125.22 754.22
1.4  938.773 650.475 973.273 669.673 1009.07 689.59 1046.23 710.271 1084.85 731.758 1125 754.101
1.41  938.604 650.381 973.097 669.575 1008.88 689.488 1046.04 710.163 1084.65 731.645 1124.79 753.982
1.42  938.435 650.287 972.922 669.477 1008.7 689.385 1045.85 710.055 1084.44 731.532 1124.58 753.864
1.43  938.266 650.193 972.746 669.379 1008.52 689.283 1045.65 709.948 1084.24 731.42 1124.37 753.747
1.44  938.097 650.099 972.57 669.281 1008.33 689.181 1045.46 709.842 1084.04 731.309 1124.16 753.63
1.45  937.928 650.005 972.395 669.184 1008.15 689.079 1045.27 709.736 1083.84 731.198 1123.95 753.514
1.46  937.759 649.911 972.219 669.086 1007.97 688.977 1045.08 709.63 1083.65 731.088 1123.74 753.4
1.47  937.59 649.817 972.044 668.988 1007.78 688.876 1044.89 709.525 1083.45 730.979 1123.54 753.286
1.48  937.42 649.723 971.868 668.891 1007.6 688.775 1044.71 709.42 1083.25 730.87 1123.34 753.173
1.49  937.251 649.628 971.693 668.793 1007.42 688.674 1044.52 709.315 1083.06 730.762 1123.14 753.061
1.5  937.082 649.534 971.518 668.696 1007.24 688.573 1044.33 709.212 1082.87 730.654 1122.94 752.95
1.51  936.913 649.44 971.342 668.598 1007.06 688.473 1044.14 709.108 1082.67 730.547 1122.74 752.839
1.52  936.743 649.346 971.167 668.501 1006.88 688.373 1043.96 709.004 1082.48 730.44 1122.54 752.729
1.53  936.574 649.252 970.992 668.403 1006.7 688.272 1043.77 708.901 1082.29 730.334 1122.34 752.619
1.54  936.405 649.157 970.817 668.306 1006.52 688.172 1043.59 708.798 1082.1 730.227 1122.14 752.509
1.55  936.236 649.063 970.642 668.208 1006.34 688.072 1043.4 708.694 1081.91 730.121 1121.94 752.399
1.56  936.066 648.969 970.467 668.111 1006.16 687.971 1043.22 708.591 1081.72 730.014 1121.75 752.289
1.57  935.897 648.875 970.292 668.013 1005.98 687.871 1043.03 708.487 1081.52 729.907 1121.55 752.178
1.58  935.728 648.781 970.117 667.916 1005.8 687.77 1042.84 708.384 1081.33 729.8 1121.35 752.067
1.59  935.559 648.687 969.941 667.819 1005.62 687.67 1042.66 708.279 1081.14 729.692 1121.15 751.955
1.6  935.391 648.593 969.766 667.721 1005.44 687.569 1042.47 708.175 1080.94 729.584 1120.95 751.843
1.61  935.222 648.499 969.591 667.624 1005.25 687.468 1042.28 708.07 1080.75 729.475 1120.74 751.73
1.62  935.053 648.405 969.416 667.526 1005.07 687.367 1042.09 707.965 1080.55 729.366 1120.54 751.616
1.63  934.885 648.312 969.241 667.429 1004.89 687.266 1041.9 707.86 1080.35 729.256 1120.33 751.502
1.64  934.716 648.218 969.066 667.332 1004.71 687.164 1041.71 707.754 1080.16 729.146 1120.13 751.387
1.65  934.548 648.124 968.892 667.234 1004.53 687.063 1041.52 707.648 1079.96 729.036 1119.92 751.272
1.66  934.379 648.03 968.717 667.137 1004.34 686.961 1041.33 707.543 1079.76 728.925 1119.71 751.156
1.67  934.211 647.937 968.542 667.04 1004.16 686.86 1041.14 707.436 1079.56 728.814 1119.5 751.04
1.68  934.042 647.843 968.367 666.942 1003.98 686.758 1040.95 707.33 1079.36 728.703 1119.3 750.925
1.69  933.874 647.749 968.192 666.845 1003.8 686.657 1040.76 707.224 1079.16 728.592 1119.09 750.809
1.7  933.706 647.656 968.017 666.748 1003.61 686.555 1040.57 707.118 1078.96 728.482 1118.88 750.693
1.71  933.537 647.562 967.843 666.651 1003.43 686.454 1040.38 707.012 1078.76 728.371 1118.67 750.577
1.72  933.369 647.468 967.668 666.554 1003.25 686.352 1040.19 706.907 1078.56 728.261 1118.46 750.462
1.73  933.201 647.375 967.493 666.456 1003.07 686.251 1040 706.801 1078.37 728.151 1118.26 750.347
1.74  933.032 647.281 967.319 666.359 1002.89 686.15 1039.81 706.696 1078.17 728.041 1118.05 750.233
1.75  932.864 647.187 967.144 666.262 1002.7 686.049 1039.62 706.591 1077.97 727.932 1117.85 750.119
1.76  932.696 647.094 966.97 666.165 1002.52 685.948 1039.43 706.486 1077.78 727.823 1117.64 750.006
1.77  932.527 647 966.795 666.068 1002.34 685.847 1039.24 706.381 1077.58 727.714 1117.44 749.893
1.78  932.359 646.906 966.621 665.971 1002.16 685.747 1039.06 706.277 1077.39 727.606 1117.24 749.78
1.79  932.191 646.813 966.446 665.874 1001.98 685.646 1038.87 706.173 1077.19 727.498 1117.04 749.668
1.8  932.023 646.719 966.272 665.777 1001.8 685.546 1038.68 706.069 1077 727.39 1116.84 749.557
1.81  931.854 646.625 966.097 665.68 1001.62 685.446 1038.5 705.965 1076.81 727.283 1116.64 749.445
1.82  931.686 646.532 965.923 665.583 1001.44 685.345 1038.31 705.862 1076.61 727.176 1116.44 749.334
1.83  931.518 646.438 965.749 665.486 1001.26 685.245 1038.12 705.758 1076.42 727.068 1116.24 749.223
1.84  931.35 646.345 965.575 665.389 1001.08 685.145 1037.94 705.655 1076.23 726.961 1116.04 749.112
1.85  931.182 646.251 965.4 665.292 1000.9 685.045 1037.75 705.551 1076.04 726.854 1115.84 749.001
1.86  931.014 646.158 965.226 665.195 1000.72 684.945 1037.57 705.447 1075.84 726.746 1115.64 748.889
1.87  930.846 646.064 965.052 665.098 1000.54 684.844 1037.38 705.343 1075.65 726.639 1115.44 748.778
1.88  930.678 645.971 964.878 665.001 1000.36 684.744 1037.19 705.239 1075.46 726.531 1115.24 748.666
1.89  930.51 645.877 964.704 664.904 1000.18 684.644 1037.01 705.135 1075.26 726.423 1115.03 748.554
1.9  930.342 645.784 964.53 664.807 999.998 684.543 1036.82 705.031 1075.07 726.315 1114.83 748.441
1.91  930.174 645.691 964.356 664.71 999.818 684.443 1036.63 704.927 1074.87 726.206 1114.63 748.329
1.92  930.006 645.597 964.181 664.613 999.637 684.342 1036.44 704.822 1074.68 726.098 1114.43 748.216
1.93  929.839 645.504 964.007 664.517 999.456 684.242 1036.25 704.718 1074.48 725.989 1114.22 748.102
1.94  929.671 645.411 963.834 664.42 999.275 684.141 1036.07 704.613 1074.29 725.88 1114.02 747.989
1.95  929.503 645.317 963.66 664.323 999.094 684.04 1035.88 704.508 1074.09 725.771 1113.81 747.875
1.96  929.336 645.224 963.486 664.226 998.913 683.94 1035.69 704.403 1073.89 725.662 1113.61 747.761
