# Gnuplot File : positions of 6 particle(s) Monitored
# 1st Column : time, others : particle(s) number 0  1  2  3 4 5
0  918.976 598.069 937.087 612.706 955.32 627.442 973.677 642.278 992.158 657.215 1010.77 672.254
0.01  918.976 598.069 937.087 612.706 955.32 627.442 973.677 642.278 992.158 657.215 1010.77 672.254
0.02  918.945 598.044 937.069 612.692 955.309 627.434 973.671 642.273 992.155 657.212 1010.76 672.252
0.03  918.906 598.013 937.037 612.666 955.285 627.414 973.654 642.259 992.143 657.203 1010.76 672.246
0.04  918.865 597.98 936.998 612.634 955.251 627.387 973.625 642.236 992.121 657.185 1010.74 672.232
0.05  918.825 597.947 936.957 612.602 955.212 627.355 973.59 642.208 992.09 657.159 1010.71 672.211
0.06  918.784 597.914 936.916 612.569 955.171 627.322 973.55 642.176 992.053 657.129 1010.68 672.184
0.07  918.743 597.881 936.875 612.535 955.13 627.289 973.509 642.143 992.013 657.097 1010.64 672.153
0.08  918.702 597.848 936.834 612.502 955.089 627.256 973.468 642.109 991.971 657.064 1010.6 672.12
0.09  918.662 597.815 936.793 612.469 955.048 627.222 973.426 642.076 991.93 657.03 1010.56 672.087
0.1  918.621 597.782 936.752 612.436 955.006 627.189 973.384 642.042 991.888 656.996 1010.52 672.053
0.11  918.58 597.749 936.711 612.403 954.965 627.155 973.343 642.008 991.846 656.962 1010.48 672.019
0.12  918.539 597.716 936.67 612.369 954.923 627.122 973.301 641.974 991.803 656.928 1010.43 671.984
0.13  918.498 597.683 936.628 612.336 954.881 627.088 973.258 641.94 991.761 656.893 1010.39 671.949
0.14  918.456 597.649 936.586 612.302 954.839 627.054 973.215 641.905 991.717 656.858 1010.34 671.913
0.15  918.414 597.615 936.543 612.267 954.796 627.018 973.171 641.87 991.672 656.822 1010.3 671.876
0.16  918.37 597.579 936.499 612.231 954.751 626.982 973.126 641.833 991.625 656.784 1010.25 671.837
0.17  918.324 597.542 936.453 612.194 954.704 626.944 973.078 641.794 991.576 656.744 1010.2 671.796
0.18  918.275 597.503 936.404 612.154 954.653 626.904 973.026 641.753 991.524 656.702 1010.15 671.753
0.19  918.223 597.461 936.351 612.111 954.6 626.86 972.971 641.708 991.467 656.656 1010.09 671.705
0.2  918.166 597.415 936.293 612.065 954.541 626.813 972.912 641.66 991.406 656.606 1010.02 671.654
0.21  918.104 597.364 936.23 612.014 954.477 626.761 972.846 641.607 991.339 656.553 1009.96 671.599
0.22  918.035 597.309 936.161 611.958 954.407 626.704 972.775 641.549 991.266 656.494 1009.88 671.539
0.23  917.96 597.248 936.085 611.896 954.33 626.642 972.697 641.486 991.188 656.43 1009.8 671.475
0.24  917.878 597.182 936.002 611.83 954.247 626.575 972.613 641.419 991.103 656.362 1009.72 671.405
0.25  917.789 597.11 935.913 611.757 954.157 626.502 972.523 641.346 991.012 656.288 1009.63 671.332
0.26  917.694 597.033 935.817 611.68 954.061 626.425 972.427 641.268 990.915 656.21 1009.53 671.254
0.27  917.593 596.952 935.716 611.598 953.959 626.343 972.325 641.185 990.814 656.128 1009.43 671.171
0.28  917.487 596.866 935.609 611.512 953.853 626.256 972.218 641.099 990.707 656.042 1009.32 671.086
0.29  917.377 596.777 935.499 611.423 953.742 626.167 972.107 641.01 990.596 655.952 1009.21 670.996
0.3  917.264 596.685 935.385 611.331 953.627 626.074 971.993 640.917 990.482 655.86 1009.1 670.904
0.31  917.147 596.591 935.268 611.236 953.51 625.979 971.875 640.822 990.364 655.765 1008.98 670.809
0.32  917.029 596.495 935.148 611.14 953.39 625.883 971.755 640.725 990.244 655.668 1008.86 670.712
0.33  916.908 596.398 935.027 611.042 953.268 625.784 971.633 640.626 990.121 655.569 1008.74 670.613
0.34  916.786 596.299 934.904 610.942 953.144 625.684 971.508 640.525 989.996 655.468 1008.61 670.511
0.35  916.662 596.199 934.779 610.841 953.019 625.583 971.382 640.423 989.869 655.365 1008.48 670.408
0.36  916.536 596.097 934.653 610.739 952.891 625.48 971.253 640.32 989.74 655.26 1008.35 670.303
0.37  916.408 595.994 934.524 610.635 952.762 625.375 971.123 640.214 989.608 655.154 1008.22 670.195
0.38  916.279 595.889 934.394 610.53 952.63 625.268 970.99 640.107 989.474 655.046 1008.08 670.086
0.39  916.146 595.783 934.26 610.422 952.496 625.16 970.854 639.997 989.337 654.935 1007.95 669.974
0.4  916.011 595.673 934.124 610.312 952.358 625.049 970.716 639.885 989.197 654.821 1007.8 669.859
0.41  915.873 595.561 933.984 610.199 952.218 624.935 970.574 639.77 989.053 654.705 1007.66 669.742
0.42  915.73 595.446 933.841 610.083 952.073 624.818 970.427 639.652 988.906 654.586 1007.51 669.621
0.43  915.584 595.328 933.693 609.964 951.924 624.698 970.277 639.531 988.754 654.464 1007.36 669.497
0.44  915.433 595.206 933.541 609.841 951.771 624.574 970.123 639.406 988.598 654.337 1007.2 669.37
0.45  915.277 595.08 933.385 609.714 951.613 624.446 969.963 639.277 988.437 654.208 1007.04 669.239
0.46  915.117 594.95 933.223 609.584 951.45 624.315 969.799 639.144 988.272 654.074 1006.87 669.104
0.47  914.951 594.817 933.056 609.449 951.282 624.179 969.63 639.008 988.102 653.936 1006.7 668.966
0.48  914.781 594.679 932.885 609.311 951.11 624.04 969.457 638.868 987.927 653.795 1006.52 668.824
0.49  914.606 594.538 932.709 609.168 950.933 623.897 969.279 638.724 987.748 653.65 1006.34 668.678
0.5  914.427 594.393 932.529 609.022 950.751 623.75 969.096 638.576 987.564 653.502 1006.16 668.529
0.51  914.243 594.244 932.344 608.873 950.565 623.6 968.909 638.425 987.377 653.35 1005.97 668.376
0.52  914.056 594.093 932.155 608.721 950.376 623.446 968.718 638.271 987.185 653.195 1005.78 668.221
0.53  913.865 593.939 931.963 608.565 950.182 623.29 968.524 638.114 986.99 653.037 1005.58 668.062
0.54  913.67 593.781 931.767 608.407 949.985 623.131 968.326 637.954 986.791 652.877 1005.38 667.901
0.55  913.473 593.622 931.568 608.246 949.785 622.969 968.125 637.791 986.588 652.713 1005.18 667.736
0.56  913.272 593.46 931.367 608.083 949.582 622.805 967.921 637.626 986.383 652.547 1004.97 667.569
0.57  913.069 593.295 931.162 607.918 949.376 622.639 967.714 637.459 986.175 652.379 1004.76 667.4
0.58  912.863 593.129 930.955 607.75 949.168 622.47 967.503 637.289 985.963 652.208 1004.55 667.228
0.59  912.654 592.96 930.744 607.58 948.956 622.299 967.29 637.117 985.748 652.034 1004.33 667.053
0.6  912.443 592.789 930.531 607.408 948.741 622.126 967.074 636.942 985.531 651.858 1004.11 666.876
0.61  912.228 592.616 930.315 607.234 948.524 621.95 966.855 636.765 985.31 651.68 1003.89 666.696
0.62  912.01 592.44 930.096 607.056 948.303 621.771 966.633 636.585 985.086 651.499 1003.66 666.514
0.63  911.789 592.261 929.874 606.877 948.079 621.59 966.407 636.403 984.858 651.315 1003.43 666.328
0.64  911.565 592.08 929.648 606.694 947.851 621.406 966.177 636.217 984.627 651.128 1003.2 666.14
0.65  911.337 591.896 929.418 606.508 947.62 621.219 965.944 636.029 984.392 650.938 1002.96 665.949
0.66  911.105 591.708 929.185 606.32 947.385 621.029 965.707 635.837 984.154 650.745 1002.72 665.754
0.67  910.869 591.518 928.947 606.128 947.146 620.836 965.467 635.643 983.911 650.549 1002.48 665.557
0.68  910.63 591.324 928.706 605.933 946.903 620.639 965.222 635.445 983.664 650.35 1002.23 665.356
0.69  910.386 591.127 928.46 605.734 946.655 620.44 964.973 635.244 983.413 650.147 1001.98 665.152
0.7  910.138 590.926 928.21 605.532 946.404 620.236 964.72 635.039 983.159 649.941 1001.72 664.944
0.71  909.886 590.722 927.957 605.327 946.148 620.03 964.462 634.831 982.9 649.732 1001.46 664.733
0.72  909.629 590.515 927.699 605.119 945.889 619.82 964.201 634.62 982.637 649.519 1001.2 664.52
0.73  909.369 590.305 927.437 604.907 945.625 619.607 963.936 634.406 982.37 649.304 1000.93 664.302
0.74  909.105 590.092 927.171 604.693 945.358 619.391 963.667 634.188 982.099 649.085 1000.66 664.082
0.75  908.838 589.876 926.902 604.475 945.087 619.172 963.394 633.967 981.824 648.863 1000.38 663.859
0.76  908.566 589.656 926.629 604.254 944.812 618.95 963.117 633.744 981.546 648.638 1000.1 663.632
0.77  908.292 589.434 926.352 604.031 944.533 618.725 962.837 633.517 981.264 648.41 999.815 663.403
0.78  908.013 589.209 926.072 603.804 944.252 618.497 962.553 633.288 980.978 648.179 999.528 663.171
0.79  907.745 588.993 925.783 603.571 943.963 618.264 962.264 633.055 980.688 647.945 999.237 662.935
0.8  907.468 588.768 925.498 603.34 943.674 618.03 961.972 632.819 980.395 647.707 998.941 662.697
0.81  907.182 588.537 925.21 603.108 943.383 617.795 961.679 632.581 980.098 647.468 998.643 662.455
0.82  906.891 588.302 924.919 602.872 943.09 617.558 961.383 632.342 979.8 647.226 998.341 662.212
0.83  906.597 588.065 924.623 602.633 942.792 617.317 961.083 632.1 979.498 646.983 998.037 661.966
0.84  906.299 587.824 924.323 602.391 942.491 617.074 960.78 631.855 979.193 646.736 997.73 661.718
0.85  905.998 587.581 924.02 602.146 942.186 616.827 960.473 631.607 978.884 646.487 997.419 661.467
0.86  905.694 587.335 923.714 601.898 941.877 616.578 960.163 631.356 978.571 646.234 997.104 661.212
0.87  905.386 587.086 923.404 601.648 941.565 616.326 959.848 631.102 978.255 645.978 996.786 660.955
0.88  905.074 586.834 923.09 601.394 941.249 616.07 959.53 630.845 977.935 645.719 996.463 660.694
0.89  904.759 586.579 922.773 601.138 940.93 615.812 959.209 630.585 977.611 645.458 996.137 660.43
0.9  904.44 586.322 922.452 600.878 940.607 615.551 958.883 630.322 977.283 645.193 995.807 660.164
0.91  904.118 586.061 922.127 600.616 940.28 615.287 958.554 630.056 976.951 644.925 995.473 659.894
0.92  903.791 585.797 921.798 600.35 939.949 615.019 958.221 629.787 976.616 644.653 995.135 659.621
0.93  903.461 585.53 921.466 600.082 939.614 614.749 957.884 629.514 976.277 644.379 994.793 659.344
0.94  903.127 585.26 921.13 599.81 939.275 614.475 957.543 629.239 975.933 644.102 994.448 659.065
0.95  902.789 584.987 920.79 599.535 938.933 614.198 957.198 628.96 975.586 643.821 994.099 658.783
0.96  902.448 584.711 920.446 599.257 938.587 613.919 956.85 628.679 975.236 643.538 993.745 658.498
0.97  902.102 584.432 920.098 598.976 938.237 613.636 956.498 628.394 974.881 643.251 993.389 658.209
0.98  901.754 584.15 919.747 598.692 937.884 613.35 956.142 628.106 974.523 642.962 993.028 657.918
0.99  901.401 583.865 919.392 598.406 937.526 613.062 955.782 627.816 974.161 642.67 992.664 657.624
1  901.045 583.578 919.034 598.116 937.166 612.77 955.419 627.523 973.796 642.374 992.296 657.326
1.01  900.686 583.288 918.672 597.824 936.802 612.476 955.053 627.227 973.427 642.076 991.925 657.026
1.02  900.324 582.995 918.307 597.529 936.435 612.179 954.683 626.928 973.055 641.775 991.55 656.723
1.03  899.958 582.699 917.939 597.231 936.064 611.88 954.31 626.626 972.679 641.472 991.172 656.418
1.04  899.589 582.401 917.568 596.931 935.69 611.577 953.933 626.322 972.3 641.165 990.79 656.109
1.05  899.216 582.1 917.193 596.628 935.312 611.272 953.553 626.014 971.917 640.856 990.405 655.797
1.06  898.84 581.796 916.814 596.322 934.931 610.964 953.169 625.704 971.531 640.544 990.016 655.483
1.07  898.461 581.489 916.432 596.013 934.547 610.653 952.782 625.391 971.141 640.229 989.623 655.166
1.08  898.078 581.18 916.047 595.702 934.159 610.34 952.392 625.076 970.747 639.911 989.227 654.846
1.09  897.692 580.868 915.658 595.388 933.767 610.023 951.997 624.757 970.35 639.59 988.827 654.523
1.1  897.302 580.553 915.266 595.071 933.372 609.704 951.6 624.436 969.95 639.266 988.424 654.197
1.11  896.909 580.235 914.87 594.75 932.973 609.382 951.198 624.111 969.546 638.939 988.017 653.868
1.12  896.512 579.914 914.47 594.428 932.571 609.057 950.793 623.784 969.138 638.61 987.606 653.536
1.13  896.111 579.59 914.067 594.102 932.165 608.728 950.384 623.453 968.726 638.277 987.192 653.201
1.14  895.707 579.263 913.66 593.773 931.755 608.397 949.972 623.12 968.311 637.941 986.774 652.863
1.15  895.299 578.934 913.249 593.441 931.342 608.063 949.556 622.783 967.892 637.603 986.352 652.522
1.16  894.888 578.601 912.835 593.106 930.925 607.726 949.136 622.444 967.469 637.261 985.926 652.178
1.17  894.472 578.266 912.417 592.768 930.504 607.386 948.712 622.102 967.043 636.916 985.497 651.831
1.18  894.054 577.927 911.995 592.428 930.08 607.043 948.285 621.757 966.613 636.569 985.064 651.481
1.19  893.631 577.586 911.57 592.084 929.652 606.697 947.854 621.408 966.179 636.218 984.627 651.128
1.2  893.206 577.242 911.141 591.737 929.22 606.348 947.42 621.057 965.741 635.865 984.187 650.772
1.21  892.776 576.895 910.709 591.388 928.785 605.997 946.981 620.703 965.3 635.508 983.743 650.413
1.22  892.343 576.545 910.273 591.036 928.346 605.642 946.54 620.346 964.856 635.149 983.295 650.052
1.23  891.907 576.192 909.834 590.681 927.904 605.285 946.095 619.986 964.408 634.787 982.844 649.687
1.24  891.467 575.837 909.391 590.323 927.458 604.925 945.646 619.624 963.956 634.422 982.389 649.319
1.25  891.024 575.479 908.945 589.963 927.009 604.562 945.194 619.258 963.501 634.054 981.931 648.949
1.26  890.577 575.118 908.496 589.599 926.556 604.196 944.738 618.89 963.042 633.683 981.469 648.576
1.27  890.127 574.754 908.043 589.233 926.1 603.827 944.279 618.519 962.579 633.309 981.003 648.199
1.28  889.681 574.394 907.596 588.872 925.633 603.45 943.812 618.141 962.111 632.931 980.533 647.819
1.29  889.233 574.031 907.142 588.505 925.169 603.075 943.343 617.762 961.639 632.549 980.058 647.435
1.3  888.777 573.663 906.682 588.133 924.706 602.7 942.874 617.383 961.165 632.166 979.58 647.049
1.31  888.315 573.289 906.217 587.758 924.238 602.322 942.403 617.003 960.69 631.782 979.1 646.661
1.32  887.848 572.912 905.748 587.378 923.766 601.941 941.928 616.619 960.211 631.395 978.618 646.272
1.33  887.378 572.532 905.274 586.996 923.29 601.556 941.449 616.232 959.729 631.006 978.133 645.879
1.34  886.903 572.148 904.797 586.61 922.81 601.168 940.965 615.841 959.243 630.613 977.643 645.484
1.35  886.426 571.762 904.316 586.221 922.325 600.776 940.478 615.447 958.753 630.217 977.15 645.085
1.36  885.944 571.373 903.831 585.83 921.838 600.382 939.987 615.05 958.258 629.817 976.653 644.683
1.37  885.46 570.982 903.343 585.435 921.346 599.985 939.493 614.651 957.76 629.415 976.151 644.278
1.38  884.971 570.587 902.852 585.038 920.851 599.585 938.994 614.248 957.259 629.009 975.646 643.87
1.39  884.479 570.189 902.357 584.638 920.353 599.182 938.492 613.842 956.753 628.601 975.137 643.459
1.4  883.984 569.789 901.858 584.234 919.851 598.776 937.987 613.434 956.244 628.189 974.625 643.044
1.41  883.485 569.385 901.355 583.828 919.345 598.367 937.477 613.022 955.732 627.775 974.109 642.627
1.42  882.982 568.979 900.849 583.419 918.835 597.956 936.964 612.607 955.215 627.358 973.589 642.207
1.43  882.476 568.57 900.339 583.007 918.322 597.541 936.448 612.19 954.695 626.937 973.065 641.784
1.44  881.966 568.158 899.826 582.593 917.805 597.123 935.928 611.77 954.171 626.514 972.538 641.358
1.45  881.452 567.743 899.309 582.175 917.285 596.703 935.404 611.346 953.644 626.088 972.007 640.929
1.46  880.936 567.325 898.789 581.754 916.761 596.28 934.877 610.92 953.114 625.659 971.473 640.497
1.47  880.415 566.905 898.265 581.331 916.234 595.853 934.346 610.491 952.579 625.227 970.935 640.062
1.48  879.892 566.482 897.738 580.905 915.704 595.425 933.812 610.06 952.042 624.793 970.394 639.625
1.49  879.365 566.056 897.208 580.477 915.17 594.993 933.275 609.625 951.501 624.356 969.849 639.185
1.5  878.835 565.628 896.675 580.045 914.633 594.559 932.734 609.188 950.956 623.916 969.301 638.742
1.51  878.302 565.197 896.138 579.612 914.092 594.122 932.19 608.749 950.409 623.473 968.75 638.296
1.52  877.765 564.763 895.598 579.175 913.548 593.683 931.642 608.306 949.857 623.027 968.195 637.848
1.53  877.225 564.327 895.054 578.736 913.001 593.241 931.091 607.861 949.303 622.579 967.636 637.396
1.54  876.682 563.888 894.507 578.294 912.451 592.796 930.537 607.413 948.745 622.128 967.074 636.942
1.55  876.136 563.446 893.957 577.849 911.897 592.348 929.979 606.962 948.183 621.674 966.509 636.485
1.56  875.586 563.001 893.403 577.402 911.339 591.897 929.418 606.508 947.618 621.217 965.94 636.025
1.57  875.032 562.554 892.846 576.951 910.778 591.444 928.853 606.052 947.049 620.758 965.367 635.562
1.58  874.475 562.104 892.285 576.498 910.214 590.988 928.285 605.593 946.477 620.295 964.791 635.097
1.59  873.914 561.651 891.721 576.042 909.646 590.528 927.713 605.13 945.901 619.83 964.211 634.628
1.6  873.35 561.195 891.153 575.583 909.074 590.066 927.137 604.665 945.321 619.361 963.628 634.156
1.61  872.782 560.736 890.581 575.121 908.498 589.601 926.558 604.197 944.738 618.89 963.04 633.682
1.62  872.211 560.274 890.006 574.656 907.92 589.134 925.975 603.726 944.151 618.416 962.45 633.204
1.63  871.641 559.813 889.433 574.193 907.346 588.67 925.381 603.245 943.556 617.935 961.853 632.722
1.64  871.069 559.352 888.858 573.728 906.764 588.2 924.789 602.767 942.959 617.452 961.251 632.236
1.65  870.494 558.886 888.277 573.258 906.178 587.726 924.197 602.289 942.361 616.969 960.648 631.748
1.66  869.912 558.416 887.691 572.785 905.587 587.248 923.602 601.808 941.762 616.484 960.043 631.26
1.67  869.325 557.941 887.1 572.307 904.992 586.768 923.004 601.325 941.159 615.998 959.436 630.769
1.68  868.733 557.463 886.505 571.826 904.394 586.284 922.402 600.838 940.553 615.508 958.826 630.276
1.69  868.138 556.982 885.906 571.342 903.791 585.797 921.795 600.348 939.943 615.015 958.212 629.78
1.7  867.539 556.498 885.303 570.855 903.184 585.307 921.185 599.855 939.329 614.518 957.594 629.28
1.71  866.937 556.012 884.697 570.365 902.574 584.814 920.571 599.358 938.711 614.019 956.972 628.777
1.72  866.331 555.522 884.087 569.872 901.961 584.318 919.953 598.859 938.089 613.516 956.346 628.272
1.73  865.723 555.03 883.474 569.377 901.344 583.819 919.332 598.357 937.464 613.011 955.717 627.763
1.74  865.11 554.535 882.858 568.879 900.723 583.318 918.707 597.852 936.835 612.503 955.084 627.251
1.75  864.495 554.038 882.238 568.378 900.099 582.813 918.079 597.345 936.202 611.991 954.447 626.737
1.76  863.876 553.538 881.615 567.874 899.472 582.306 917.448 596.834 935.566 611.477 953.806 626.219
1.77  863.253 553.034 880.988 567.368 898.841 581.796 916.812 596.321 934.927 610.961 953.162 625.699
1.78  862.627 552.528 880.358 566.858 898.206 581.283 916.173 595.804 934.283 610.441 952.515 625.175
1.79  861.997 552.019 879.724 566.346 897.568 580.768 915.531 595.285 933.637 609.918 951.864 624.649
1.8  861.364 551.508 879.087 565.831 896.927 580.249 914.885 594.763 932.987 609.393 951.209 624.12
1.81  860.728 550.993 878.446 565.313 896.282 579.728 914.236 594.238 932.333 608.864 950.551 623.588
1.82  860.088 550.476 877.802 564.793 895.633 579.204 913.583 593.711 931.676 608.333 949.89 623.054
1.83  859.445 549.956 877.154 564.269 894.982 578.677 912.927 593.181 931.016 607.8 949.225 622.517
1.84  858.798 549.434 876.504 563.744 894.327 578.148 912.268 592.648 930.352 607.263 948.557 621.977
1.85  858.149 548.909 875.85 563.215 893.668 577.616 911.605 592.112 929.685 606.724 947.886 621.434
1.86  857.496 548.382 875.193 562.684 893.007 577.081 910.94 591.574 929.015 606.182 947.211 620.888
1.87  856.84 547.852 874.533 562.151 892.342 576.544 910.27 591.033 928.341 605.638 946.533 620.34
1.88  856.181 547.319 873.869 561.614 891.674 576.004 909.598 590.49 927.664 605.091 945.851 619.789
1.89  855.519 546.784 873.203 561.076 891.003 575.462 908.922 589.944 926.983 604.541 945.166 619.236
1.9  854.853 546.246 872.532 560.534 890.329 574.917 908.243 589.395 926.3 603.988 944.477 618.679
1.91  854.184 545.705 871.859 559.99 889.651 574.369 907.56 588.843 925.612 603.433 943.785 618.12
1.92  853.514 545.164 871.185 559.445 888.974 573.822 906.883 588.296 924.913 602.868 943.085 617.554
1.93  852.844 544.622 870.51 558.9 888.294 573.273 906.197 587.741 924.217 602.305 942.382 616.986
1.94  852.17 544.077 869.832 558.351 887.61 572.719 905.505 587.182 923.52 601.741 941.678 616.417
1.95  851.492 543.529 869.148 557.799 886.921 572.162 904.811 586.621 922.82 601.176 940.973 615.847
1.96  850.808 542.977 868.46 557.242 886.228 571.602 904.113 586.057 922.117 600.608 940.265 615.275
