# Gnuplot File : positions of 10 particle(s) Monitored
# 1st Column : time, others : particle(s) number 0 1 2 3 4 5 6 7 8 9 
# nParticles : 10
0.001  581.243 68.6686 587.32 68.4828 593.121 68.2219 598.536 68.0412 603.834 67.8015 608.763 67.6689 613.439 67.4407 617.926 67.2486 622.227 67.1175 626.226 66.9696
0.002  581.176 68.6978 587.341 68.4525 593.089 68.2519 598.541 67.9854 603.808 67.7818 608.715 67.5872 613.386 67.4273 617.905 67.2817 622.165 67.0836 626.242 66.94
0.003  581.055 68.6828 587.256 68.4824 593.013 68.2723 598.472 67.9966 603.719 67.8239 608.661 67.6034 613.373 67.4667 617.842 67.2751 622.115 67.1075 626.155 66.9332
0.004  580.94 68.6905 587.102 68.4606 592.928 68.2241 598.411 68.0478 603.676 67.8331 608.631 67.6615 613.305 67.4526 617.786 67.2718 622.044 67.0997 626.114 66.9992
0.005  580.782 68.7205 586.943 68.4565 592.749 68.2664 598.3 68.0633 603.522 67.8818 608.474 67.6446 613.191 67.4353 617.612 67.3073 621.978 67.1367 626.009 66.9721
0.006  580.641 68.7301 586.759 68.4828 592.607 68.2713 598.106 68.0127 603.38 67.8507 608.315 67.6503 613.065 67.4758 617.536 67.3166 621.782 67.1317 625.9 66.9961
0.007  580.383 68.7513 586.573 68.5692 592.382 68.3048 597.912 68.1165 603.193 67.8976 608.174 67.6651 612.848 67.5109 617.369 67.3144 621.652 67.1748 625.753 66.9879
0.008  580.146 68.7533 586.317 68.5476 592.178 68.357 597.678 68.109 602.948 67.9177 607.943 67.7475 612.687 67.5419 617.193 67.3652 621.486 67.1791 625.581 67.0446
0.009  579.811 68.809 586.055 68.5617 591.904 68.3515 597.419 68.1282 602.716 67.9333 607.733 67.7146 612.48 67.5561 616.986 67.3607 621.314 67.1916 625.375 67.0531
0.01  579.493 68.8764 585.687 68.6586 591.58 68.3738 597.129 68.1891 602.446 67.9628 607.412 67.7617 612.179 67.6009 616.695 67.4118 621.087 67.2502 625.162 67.1015
0.011  579.088 68.8746 585.316 68.6568 591.257 68.4516 596.786 68.2126 602.108 68.0251 607.13 67.8217 611.928 67.5938 616.481 67.4284 620.792 67.2228 624.944 67.0825
0.012  578.624 68.8898 584.895 68.7211 590.827 68.4949 596.421 68.2185 601.792 68.0519 606.863 67.8525 611.624 67.6678 616.18 67.4948 620.521 67.3217 624.675 67.1434
0.013  578.141 69.0332 584.477 68.687 590.455 68.538 596.042 68.2746 601.368 68.0568 606.482 67.8823 611.271 67.6363 615.883 67.4881 620.244 67.3042 624.391 67.1597
0.014  577.663 69.0774 584.025 68.843 590 68.5887 595.628 68.355 601.027 68.1409 606.071 67.916 610.854 67.7557 615.444 67.5361 619.882 67.4157 624.027 67.2303
0.015  577.093 69.1151 583.448 68.8684 589.46 68.6181 595.198 68.4182 600.559 68.1789 605.686 67.9728 610.504 67.7407 615.157 67.588 619.528 67.427 623.742 67.2356
0.016  576.505 69.2006 582.911 68.9485 588.928 68.7142 594.666 68.4201 600.092 68.2386 605.199 68.0287 610.061 67.8388 614.71 67.6526 619.151 67.4694 623.346 67.3003
0.017  575.867 69.299 582.313 68.9744 588.388 68.7583 594.16 68.4885 599.587 68.2934 604.734 68.0767 609.606 67.9014 614.28 67.717 618.712 67.5583 622.95 67.3343
0.018  575.203 69.3507 581.643 69.0907 587.823 68.8265 593.522 68.5521 599.042 68.2956 604.251 68.1485 609.161 67.9432 613.823 67.7565 618.238 67.5908 622.492 67.4319
0.019  574.418 69.3935 580.956 69.1264 587.138 68.8821 592.948 68.6165 598.455 68.39 603.722 68.2178 608.643 68.0236 613.313 67.8427 617.779 67.609 622.042 67.4626
0.02  573.723 69.4917 580.259 69.1772 586.429 68.9752 592.299 68.7015 597.82 68.4937 603.079 68.2839 608.084 68.0903 612.826 67.8759 617.297 67.6957 621.604 67.5325
0.021  572.885 69.5993 579.465 69.3114 585.752 69.0694 591.615 68.8225 597.211 68.527 602.465 68.3521 607.456 68.1231 612.261 67.9511 616.739 67.7733 621.082 67.5787
0.022  572.05 69.6547 578.689 69.3133 584.97 69.1496 590.876 68.8461 596.487 68.6425 601.83 68.4048 606.881 68.2265 611.617 68.0593 616.202 67.8437 620.565 67.6474
0.023  571.127 69.8085 577.847 69.4842 584.193 69.2497 590.126 68.9824 595.772 68.7415 601.104 68.5263 606.237 68.317 611.032 68.1055 615.609 67.9 619.995 67.6915
0.024  570.197 69.8486 576.951 69.5228 583.322 69.315 589.34 69.081 595.028 68.8092 600.378 68.6082 605.53 68.365 610.37 68.1692 615.008 68.0053 619.37 67.8064
0.025  569.183 69.9515 575.93 69.701 582.41 69.4133 588.46 69.2267 594.208 68.9265 599.636 68.6716 604.767 68.4899 609.676 68.2422 614.366 68.0578 618.789 67.8619
0.026  568.084 70.0906 574.997 69.8198 581.472 69.4805 587.604 69.267 593.414 68.9985 598.868 68.7587 604.034 68.526 608.973 68.3504 613.656 68.1449 618.092 67.9575
0.027  566.947 70.1249 573.914 69.8688 580.474 69.6516 586.649 69.3684 592.485 69.1038 598.022 68.9224 603.321 68.6491 608.192 68.4247 612.942 68.2498 617.408 68.0202
0.028  565.801 70.3288 572.871 70.0205 579.443 69.7859 585.695 69.4651 591.574 69.2237 597.146 68.9795 602.369 68.7701 607.398 68.5255 612.188 68.3464 616.727 68.1463
0.029  564.644 70.4545 571.69 70.1844 578.357 69.8883 584.665 69.5996 590.587 69.3063 596.227 69.0594 601.575 68.825 606.613 68.646 611.349 68.4238 616.005 68.2106
0.03  563.307 70.6114 570.499 70.2954 577.253 69.9992 583.607 69.7096 589.593 69.459 595.268 69.1996 600.6 69.0311 605.734 68.7784 610.565 68.5382 615.175 68.3055
0.031  561.988 70.7287 569.234 70.4703 576.056 70.1254 582.48 69.8132 588.54 69.6088 594.241 69.3018 599.698 69.0642 604.843 68.8245 609.708 68.6481 614.369 68.4071
0.032  560.577 70.883 567.924 70.5788 574.808 70.2064 581.262 70.0024 587.453 69.684 593.216 69.4588 598.733 69.2016 603.908 68.9687 608.844 68.7381 613.543 68.5078
0.033  559.19 71.0707 566.543 70.7492 573.518 70.3803 580.116 70.104 586.289 69.872 592.119 69.5819 597.626 69.3467 602.915 69.0951 607.878 68.8318 612.614 68.6603
0.034  557.623 71.2344 565.113 70.8935 572.174 70.5762 578.829 70.2652 585.097 69.9553 590.997 69.7062 596.611 69.431 601.884 69.2121 606.909 68.9705 611.716 68.7515
0.035  556.029 71.3947 563.597 71.0748 570.785 70.719 577.467 70.3987 583.797 70.0923 589.739 69.8761 595.456 69.5257 600.835 69.3381 605.908 69.0965 610.751 68.8848
0.036  554.397 71.589 562.082 71.1575 569.316 70.8781 576.105 70.5836 582.499 70.256 588.58 69.9632 594.295 69.6967 599.757 69.5207 604.867 69.216 609.77 68.9781
0.037  552.606 71.7094 560.443 71.3894 567.765 71.0512 574.692 70.7408 581.185 70.4483 587.32 70.1462 593.134 69.8658 598.549 69.5592 603.803 69.3764 608.68 69.1702
0.038  550.844 71.9499 558.717 71.6176 566.195 71.2093 573.136 70.9064 579.765 70.5871 585.94 70.2567 591.854 70.015 597.417 69.7656 602.618 69.5085 607.663 69.2984
0.039  548.914 72.1848 556.978 71.7992 564.565 71.4284 571.601 71.0724 578.282 70.7667 584.555 70.3903 590.526 70.1738 596.145 69.8985 601.45 69.66 606.53 69.4383
0.04  546.975 72.3959 555.163 71.9823 562.814 71.6407 570.017 71.2768 576.768 70.9144 583.112 70.6226 589.156 70.3118 594.854 70.0483 600.247 69.7742 605.405 69.5097
0.041  544.89 72.5381 553.23 72.1342 561.02 71.8258 568.266 71.4233 575.159 71.1453 581.626 70.8028 587.721 70.5337 593.51 70.2873 598.947 69.9329 604.143 69.7227
0.042  542.622 73.0045 551.146 72.4641 559.13 72.0291 566.53 71.666 573.502 71.3362 580.06 70.9778 586.304 70.6681 592.128 70.3904 597.621 70.1306 602.91 69.861
0.043  538.803 74.7328 548.414 73.3255 556.917 72.4997 564.611 71.987 571.818 71.5161 578.472 71.1874 584.746 70.8821 590.705 70.5843 596.333 70.3288 601.612 70.0428
0.044  534.846 76.5577 545.422 74.4476 554.432 73.2472 562.535 72.3918 569.962 71.8959 576.775 71.4793 583.207 71.0618 589.197 70.7955 594.947 70.4504 600.323 70.1714
0.045  530.709 78.5097 542.072 75.8232 551.67 74.0868 560.257 73.0462 567.993 72.2096 575.028 71.7411 581.569 71.3281 587.716 70.983 593.513 70.6609 598.995 70.3665
0.046  526.578 80.7023 538.576 77.3092 548.784 75.151 557.773 73.6928 565.781 72.7913 573.147 72.0697 579.806 71.6236 586.148 71.2339 591.986 70.8504 597.579 70.5597
0.047  522.068 83.0963 534.821 79.0234 545.741 76.3552 555.1 74.6006 563.54 73.3372 571.079 72.5076 578.037 71.9341 584.488 71.5162 590.449 71.0973 596.116 70.7865
0.048  517.388 85.8569 530.883 81.0466 542.399 77.7113 552.363 75.5065 561.079 74.0792 568.948 73.0745 576.117 72.3778 582.676 71.8024 588.838 71.3932 594.616 71.0345
0.049  512.519 88.8524 526.836 83.1384 538.903 79.2674 549.272 76.7261 558.488 74.8836 566.674 73.6446 574.105 72.7839 580.901 72.1489 587.128 71.6656 593.091 71.312
0.05  507.724 91.945 522.553 85.515 535.214 81.0236 546.258 77.9928 555.722 75.8714 564.298 74.3554 571.984 73.3176 578.941 72.5662 585.393 72.0293 591.375 71.5971
0.051  502.432 95.8378 518.015 88.3133 531.356 83.1006 542.863 79.4492 552.925 76.948 561.756 75.1865 569.719 73.9207 576.977 72.9888 583.492 72.4482 589.641 71.9591
0.052  497.12 99.905 513.419 91.2967 527.436 85.3136 539.484 81.1111 549.889 78.1343 559.197 76.0518 567.367 74.6309 574.812 73.6529 581.597 72.8621 587.844 72.4306
0.053  491.732 104.159 508.741 94.6335 523.296 87.7211 535.875 82.893 546.772 79.4847 556.403 77.0992 564.931 75.4016 572.6 74.2417 579.578 73.3571 585.902 72.802
0.054  486.229 109.123 503.792 98.3243 519.03 90.5475 532.141 84.929 543.527 81.0024 553.52 78.279 562.416 76.288 570.297 74.9757 577.454 73.9632 584.044 73.3421
0.055  480.667 114.528 498.909 102.312 514.694 93.485 528.254 87.1701 540.138 82.7056 550.528 79.5294 559.714 77.2771 567.892 75.6761 575.245 74.6566 581.871 73.9199
0.056  475.057 120.303 493.867 106.816 510.149 96.8925 524.27 89.7595 536.565 84.6487 547.434 80.9503 556.889 78.4418 565.406 76.6054 572.943 75.3902 579.723 74.6323
0.057  469.483 126.718 488.81 111.695 505.574 100.598 520.232 92.5232 533.043 86.6972 544.214 82.6246 554.054 79.5926 562.758 77.6412 570.602 76.2339 577.511 75.3685
0.058  463.977 133.422 483.688 116.855 500.964 104.594 516.073 95.5696 529.304 89.0181 540.828 84.3452 551.069 81.0287 560.041 78.75 568.067 77.1666 575.184 76.1875
0.059  458.523 141.011 478.601 122.614 496.338 108.989 511.861 98.9166 525.514 91.6186 537.457 86.3468 547.988 82.6049 557.317 79.9512 565.513 78.2123 572.85 77.1307
0.06  453.225 148.852 473.527 128.8 491.662 113.712 507.621 102.591 521.699 94.4341 534.03 88.4855 544.868 84.3297 554.423 81.3583 562.901 79.4189 570.417 78.2363
0.061  448.111 157.287 468.614 135.429 486.948 118.86 503.344 106.568 517.782 97.4778 530.482 90.9272 541.647 86.2465 551.499 82.8972 560.114 80.7223 567.848 79.4255
0.062  443.219 166.295 463.761 142.433 482.413 124.408 499.141 110.904 513.852 100.86 526.874 93.5523 538.403 88.2969 548.476 84.6603 557.395 82.121 565.193 80.6956
0.063  438.617 175.769 459.135 149.941 477.941 130.312 494.873 115.504 509.916 104.476 523.252 96.4294 535.018 90.586 545.437 86.4493 554.629 83.7699 562.55 82.2047
0.064  434.249 185.824 454.677 157.984 473.539 136.688 490.67 120.468 506.031 108.378 519.662 99.5249 531.696 93.0576 542.342 88.5559 551.658 85.4957 559.79 83.7414
0.065  430.318 196.394 450.58 166.464 469.373 143.422 486.568 125.872 502.148 112.658 515.996 102.798 528.314 95.7993 539.25 90.7111 548.754 87.543 557.039 85.5325
0.066  426.835 207.27 446.594 175.313 465.294 150.479 482.597 131.532 498.267 117.152 512.445 106.466 525.018 98.745 536.078 93.1878 545.845 89.5594 554.252 87.4321
0.067  423.823 218.612 443.109 184.614 461.624 158.009 478.798 137.501 494.603 121.976 508.96 110.341 521.684 101.815 533.003 95.8727 542.891 91.8846 551.519 89.5528
0.068  421.399 230.279 439.978 194.205 458.076 165.864 475.27 143.914 491.051 127.129 505.508 114.578 518.429 105.251 529.843 98.7121 539.942 94.3559 548.719 91.7912
0.069  419.617 242.274 437.368 204.178 455.006 173.99 472.01 150.551 487.721 132.524 502.149 118.94 515.225 108.906 526.751 101.844 536.972 97.072 545.962 94.3594
0.07  418.52 254.454 435.307 214.39 452.265 182.513 468.861 157.524 484.575 138.17 498.939 123.668 512.05 112.815 523.797 105.092 534.197 100.023 543.283 96.9998
0.071  418.068 266.594 433.609 224.773 449.925 191.191 466.14 164.715 481.584 144.226 495.963 128.549 509.1 116.976 520.885 108.632 531.365 102.911 540.66 99.4725
0.072  418.55 278.92 432.788 235.235 448.168 200.047 463.796 172.17 478.923 150.34 493.131 133.706 506.291 121.173 518.183 112.075 528.803 105.599 538.185 101.167
0.073  419.891 290.999 432.525 245.695 446.933 209.02 461.788 179.691 476.547 156.696 490.645 138.909 503.654 125.492 515.51 115.44 526.303 108.175 535.951 102.775
0.074  421.828 302.733 432.934 256.187 446.091 218.086 460.27 187.376 474.503 163.172 488.3 144.31 501.183 129.838 513.128 118.864 523.93 110.686 533.666 104.305
0.075  424.963 314.112 434.087 266.246 446 226.966 459.253 195.059 472.923 169.69 486.254 149.721 499.049 134.238 510.923 122.275 521.83 113.105 531.698 105.785
0.076  428.455 324.841 435.786 276.219 446.332 235.766 458.559 202.809 471.53 176.239 484.546 155.144 497.111 138.588 508.85 125.688 519.738 115.467 529.747 107.164
0.077  432.824 335 438.218 285.659 447.244 244.383 458.38 210.349 470.594 182.744 483.156 160.601 495.392 143.036 507.072 129.123 517.922 117.845 528.091 108.697
0.078  437.531 344.564 441.102 294.711 448.613 252.712 458.64 217.781 470.022 189.231 481.993 166.059 493.902 147.385 505.408 132.515 516.257 120.378 526.431 110.237
0.079  442.755 353.384 444.483 303.349 450.49 260.639 459.342 224.981 469.833 195.431 481.237 171.378 492.697 151.741 503.978 135.918 514.779 122.851 524.934 111.754
0.08  448.134 361.472 448.143 311.403 452.621 268.331 460.327 231.91 469.972 201.568 480.594 176.661 491.751 156.041 502.815 139.175 513.44 125.088 523.607 113.206
0.081  453.907 368.885 451.974 318.74 455.016 275.402 461.316 238.378 469.52 207.032 479.526 180.939 490.478 159.538 501.291 141.526 511.976 126.833 522.267 114.722
0.082  459.498 375.777 455.872 325.705 457.196 281.997 461.78 244.202 468.339 211.678 477.889 184.579 488.694 162.344 499.694 143.808 510.484 128.471 520.902 116.091
0.083  465.315 381.764 459.753 331.877 459.163 287.932 461.514 249.4 467.246 215.972 476.404 188.058 487.074 165.026 498.149 146.062 509.036 130.291 519.542 117.497
0.084  470.893 387.221 463.491 337.447 460.943 293.306 461.438 254.228 466.15 219.981 474.99 191.488 485.588 167.748 496.717 148.331 507.726 132.046 518.259 118.883
0.085  476.196 392.104 467.01 342.509 462.752 298.212 461.359 258.675 465.296 223.9 473.804 194.696 484.141 170.52 495.267 150.471 506.241 133.894 516.923 120.413
0.086  481.586 396.283 470.646 346.921 464.525 302.52 461.391 262.845 464.596 227.579 472.796 197.885 482.928 173.109 493.779 152.373 504.871 135.631 515.601 121.854
0.087  486.744 400.106 473.986 350.989 466.26 306.493 461.612 266.607 463.963 230.96 471.802 200.836 481.721 175.552 492.519 154.437 503.684 137.331 514.369 123.12
0.088  491.602 403.621 477.4 354.755 467.957 310.317 461.643 270.331 463.335 234.106 470.757 203.576 480.548 177.869 491.267 156.4 502.364 138.766 513.124 124.458
0.089  496.493 406.782 480.609 358.02 469.666 313.692 461.865 273.664 462.822 237.183 469.839 206.215 479.447 180.161 490.215 158.334 501.195 140.428 511.939 125.688
0.09  501.273 409.6 483.866 361.175 471.362 316.858 462.161 276.748 462.505 240.025 469.145 208.805 478.611 182.36 489.18 160.171 500.123 141.923 510.79 126.938
0.091  505.795 412.307 486.95 363.944 472.954 319.815 462.407 279.715 462.041 242.703 468.53 211.212 477.737 184.569 488.218 162.136 499.159 143.455 509.766 127.987
0.092  510.18 414.984 489.916 366.659 474.587 322.562 462.596 282.509 461.631 245.306 467.9 213.587 476.959 186.606 487.385 163.755 498.194 144.851 508.837 129.234
0.093  514.468 417.369 492.77 369.145 476.087 325.202 462.919 285.212 461.402 247.787 467.261 215.733 476.174 188.434 486.39 165.434 497.292 146.306 507.968 130.466
0.094  518.582 419.593 495.662 371.576 477.632 327.602 463.366 287.667 461.331 250.064 466.669 217.804 475.392 190.176 485.632 166.975 496.463 147.699 507.053 131.581
0.095  522.774 421.818 498.389 373.634 479.309 329.9 463.748 290.075 461.072 252.32 466.213 219.739 474.714 191.908 484.909 168.504 495.679 148.978 506.224 132.64
0.096  526.681 423.798 501.264 375.793 480.765 332.086 464.062 292.35 460.81 254.42 465.755 221.678 474.152 193.635 484.205 169.902 494.893 150.065 505.487 133.682
0.097  530.475 425.779 503.785 377.81 482.199 334.231 464.473 294.53 460.604 256.549 465.353 223.469 473.593 195.315 483.559 171.298 494.033 151.151 504.759 134.589
0.098  533.978 427.731 506.26 379.809 483.652 336.159 464.879 296.679 460.439 258.446 465.036 225.333 473.118 196.855 482.91 172.576 493.418 152.3 504.041 135.466
0.099  537.447 429.543 508.6 381.573 485.045 338.122 465.429 298.871 460.445 260.312 464.667 226.853 472.634 198.34 482.32 173.831 492.79 153.338 503.334 136.343
0.1  540.859 431.135 510.973 383.382 486.401 339.974 465.908 300.576 460.419 262.008 464.209 228.538 472.241 199.746 481.768 175.023 492.175 154.327 502.683 137.196
0.101  544.06 432.859 513.198 384.983 487.843 341.665 466.519 302.376 460.483 263.782 463.928 230.005 471.626 201.032 481.204 176.147 491.628 155.27 502.062 137.929
0.102  547.182 434.247 515.438 386.568 489.162 343.334 467.072 304.185 460.417 265.391 463.684 231.426 471.237 202.251 480.63 177.244 491.008 156.233 501.473 138.726
0.103  550.183 435.603 517.616 388.065 490.424 345.125 467.57 305.845 460.459 267.014 463.368 232.887 470.84 203.469 480.084 178.281 490.457 157.133 500.86 139.359
0.104  553.023 436.857 519.548 389.582 491.628 346.595 468.045 307.566 460.256 268.602 463.2 234.288 470.365 204.667 479.646 179.312 489.912 158.043 500.315 140.143
0.105  555.706 438.143 521.533 390.909 492.821 348.102 468.512 309.099 460.285 270.188 462.95 235.597 470.046 205.763 479.288 180.36 489.459 158.901 499.86 140.834
0.106  558.33 439.238 523.335 392.205 493.969 349.635 469.107 310.697 460.389 271.625 462.736 236.887 469.735 206.998 478.957 181.382 489.062 159.728 499.34 141.588
0.107  560.918 440.153 525.168 393.312 495.124 351.065 469.717 312.073 460.538 272.918 462.581 238.171 469.394 208.093 478.54 182.313 488.592 160.474 498.93 142.256
0.108  563.386 441.061 526.925 394.444 496.216 352.296 470.347 313.377 460.667 274.171 462.356 239.274 469.119 209.146 478.153 183.261 488.16 161.165 498.413 142.884
0.109  565.728 441.824 528.636 395.424 497.322 353.484 470.951 314.623 460.879 275.467 462.192 240.531 468.818 210.116 477.84 184.131 487.741 161.922 497.985 143.468
0.11  567.912 442.425 530.254 396.442 498.448 354.679 471.494 315.88 461 276.592 461.986 241.47 468.586 211.098 477.434 184.943 487.333 162.603 497.569 144.057
0.111  570.21 443.104 531.826 397.169 499.359 355.69 472.06 317.104 460.998 277.843 461.872 242.553 468.274 212.043 477.135 185.688 486.882 163.221 497.164 144.613
0.112  572.238 443.551 533.324 397.89 500.324 356.654 472.596 318.197 461.207 278.859 461.729 243.56 468.108 212.955 476.823 186.507 486.541 163.856 496.724 145.169
0.113  574.221 444.038 534.774 398.682 501.288 357.704 473.025 319.301 461.299 279.953 461.556 244.514 467.84 213.859 476.497 187.229 486.126 164.525 496.271 145.639
0.114  576.18 444.382 536.162 399.379 502.131 358.651 473.456 320.343 461.344 281.126 461.521 245.483 467.57 214.628 476.232 187.956 485.82 165.082 495.944 146.245
0.115  577.898 444.69 537.443 400.018 502.931 359.598 473.913 321.365 461.472 282.109 461.51 246.387 467.41 215.448 475.891 188.658 485.484 165.706 495.495 146.748
0.116  579.69 444.943 538.747 400.551 503.799 360.41 474.307 322.318 461.581 283.118 461.497 247.313 467.175 216.235 475.617 189.315 485.141 166.292 495.163 147.226
0.117  581.341 445.093 539.908 401.095 504.47 361.174 474.815 323.336 461.794 284.078 461.429 248.193 467.004 216.919 475.398 189.911 484.844 166.897 494.827 147.629
0.118  582.933 445.352 541.079 401.648 505.256 362.031 475.214 324.174 461.819 284.963 461.385 249.049 466.805 217.617 475.065 190.525 484.519 167.307 494.484 148.027
0.119  584.449 445.585 542.191 402.08 506.035 362.976 475.762 325.065 462.138 285.817 461.312 249.781 466.631 218.382 474.804 191.141 484.182 167.926 494.159 148.481
0.12  585.971 445.657 543.244 402.58 506.719 363.617 476.153 325.798 462.266 286.598 461.225 250.578 466.491 218.941 474.587 191.748 483.99 168.436 493.884 148.869
