# Gnuplot File : positions of 10 particle(s) Monitored
# 1st Column : time, others : particle(s) number 0 1 2 3 4 5 6 7 8 9 
# nParticles : 10
0.001  628.501 235.359 650.892 235.37 673.267 235.351 695.694 235.369 718.002 235.313 740.469 235.326 762.833 235.372 785.202 235.365 807.609 235.343 829.973 235.352
0.002  628.34 235.357 650.725 235.37 673.165 235.35 695.519 235.353 717.92 235.353 740.323 235.36 762.67 235.332 785.088 235.33 807.47 235.353 829.88 235.339
0.003  628.109 235.329 650.468 235.355 672.887 235.365 695.233 235.376 717.617 235.362 740.072 235.328 762.416 235.376 784.803 235.379 807.196 235.352 829.639 235.349
0.004  627.678 235.347 650.067 235.342 672.467 235.398 694.873 235.384 717.268 235.384 739.648 235.381 762.046 235.377 784.408 235.359 806.781 235.373 829.221 235.413
0.005  627.133 235.384 649.558 235.422 671.939 235.337 694.33 235.351 716.7 235.39 739.108 235.437 761.531 235.354 783.923 235.415 806.295 235.408 828.639 235.37
0.006  626.485 235.389 648.84 235.357 671.247 235.36 693.613 235.392 716.073 235.365 738.427 235.443 760.789 235.402 783.217 235.389 805.65 235.403 827.932 235.372
0.007  625.709 235.405 648.087 235.449 670.454 235.406 692.876 235.4 715.275 235.423 737.614 235.463 760.022 235.445 782.442 235.378 804.836 235.409 827.249 235.409
0.008  624.764 235.417 647.103 235.422 669.561 235.43 691.878 235.439 714.302 235.41 736.739 235.432 759.101 235.405 781.455 235.38 803.874 235.402 826.259 235.446
0.009  623.644 235.463 646.047 235.445 668.427 235.445 690.808 235.399 713.229 235.44 735.602 235.461 758.054 235.465 780.406 235.424 802.767 235.435 825.201 235.465
0.01  622.462 235.453 644.824 235.491 667.274 235.461 689.637 235.454 712.015 235.451 734.418 235.495 756.782 235.48 779.197 235.47 801.587 235.457 824 235.444
0.011  621.083 235.49 643.485 235.505 665.888 235.499 688.277 235.458 710.657 235.509 733.064 235.49 755.429 235.458 777.825 235.479 800.256 235.49 822.645 235.501
0.012  619.643 235.5 642.031 235.496 664.414 235.51 686.779 235.493 709.171 235.525 731.56 235.479 753.998 235.471 776.367 235.504 798.737 235.501 821.115 235.512
0.013  618.013 235.569 640.487 235.528 662.773 235.526 685.166 235.548 707.591 235.517 729.983 235.555 752.381 235.498 774.772 235.527 797.141 235.524 819.514 235.504
0.014  616.268 235.551 638.644 235.551 661.068 235.536 683.459 235.545 705.766 235.547 728.288 235.563 750.654 235.594 773.054 235.561 795.355 235.555 817.804 235.538
0.015  614.436 235.565 636.795 235.605 659.131 235.566 681.544 235.558 703.941 235.586 726.337 235.607 748.773 235.574 771.09 235.59 793.496 235.618 815.892 235.618
0.016  612.332 235.62 634.718 235.602 657.171 235.61 679.553 235.632 701.911 235.62 724.3 235.59 746.687 235.622 769.087 235.633 791.544 235.607 813.903 235.658
0.017  610.216 235.627 632.647 235.682 654.983 235.66 677.411 235.657 699.82 235.656 722.209 235.642 744.579 235.647 766.967 235.684 789.353 235.659 811.762 235.644
0.018  607.94 235.703 630.283 235.701 652.727 235.698 675.165 235.716 697.52 235.689 719.881 235.638 742.286 235.712 764.678 235.698 787.038 235.714 809.485 235.681
0.019  605.523 235.748 627.92 235.758 650.322 235.761 672.673 235.714 695.043 235.752 717.481 235.712 739.877 235.751 762.292 235.748 784.66 235.754 806.999 235.726
0.02  602.977 235.804 625.368 235.788 647.761 235.778 670.155 235.824 692.544 235.843 714.917 235.742 737.353 235.785 759.705 235.763 782.15 235.803 804.491 235.796
0.021  600.314 235.871 622.672 235.828 645.037 235.827 667.465 235.841 689.862 235.831 712.244 235.85 734.622 235.838 757.036 235.82 779.432 235.834 801.742 235.822
0.022  597.445 235.873 619.853 235.871 642.263 235.882 664.657 235.857 687.017 235.891 709.39 235.872 731.791 235.858 754.191 235.877 776.607 235.872 798.996 235.894
0.023  594.476 235.974 616.933 235.906 639.279 235.942 661.682 235.958 684.041 235.937 706.449 235.922 728.866 235.929 751.228 235.947 773.675 235.952 796.016 235.961
0.024  591.423 235.917 613.796 236.008 636.242 235.972 658.598 236.005 680.952 235.999 703.394 235.96 725.756 235.983 748.172 235.967 770.528 236.029 792.955 235.979
0.025  588.168 236.004 610.545 236.02 632.955 236.048 655.346 236.006 677.754 236.063 700.147 236.031 722.563 236.025 744.923 236.044 767.281 236.05 789.731 236.065
0.026  584.815 236.127 607.179 236.05 629.601 236.089 652.024 236.078 674.409 236.098 696.777 236.116 719.18 236.063 741.578 236.097 763.945 236.07 786.34 236.076
0.027  581.328 236.162 603.742 236.136 626.092 236.213 648.48 236.155 670.908 236.133 693.36 236.129 715.659 236.181 738.123 236.156 760.46 236.114 782.867 236.158
0.028  577.735 236.215 600.112 236.194 622.477 236.174 644.856 236.214 667.302 236.185 689.646 236.233 712.01 236.254 734.421 236.218 756.791 236.207 779.218 236.198
0.029  573.957 236.273 596.359 236.262 618.738 236.26 641.136 236.22 663.551 236.251 685.923 236.294 708.282 236.294 730.693 236.268 753.101 236.301 775.448 236.276
0.03  570.082 236.319 592.455 236.328 614.842 236.349 637.244 236.346 659.633 236.347 681.965 236.302 704.398 236.354 726.811 236.346 749.133 236.31 771.55 236.336
0.031  566.023 236.394 588.41 236.466 610.848 236.429 633.194 236.409 655.618 236.406 677.984 236.394 700.345 236.387 722.752 236.373 745.146 236.407 767.518 236.411
0.032  561.83 236.436 584.271 236.457 606.616 236.482 629.019 236.496 651.441 236.505 673.826 236.445 696.214 236.492 718.626 236.448 740.971 236.495 763.386 236.479
0.033  557.557 236.509 579.961 236.563 602.331 236.555 624.695 236.527 647.183 236.533 669.51 236.529 691.938 236.519 714.303 236.582 736.73 236.569 759.076 236.53
0.034  553.136 236.6 575.544 236.644 597.887 236.604 620.294 236.644 642.668 236.628 665.098 236.649 687.436 236.599 709.859 236.589 732.281 236.628 754.651 236.635
0.035  548.505 236.7 570.996 236.729 593.345 236.74 615.735 236.665 638.137 236.676 660.538 236.7 682.926 236.699 705.348 236.683 727.714 236.696 750.083 236.717
0.036  543.833 236.742 566.239 236.792 588.629 236.776 611.001 236.757 633.466 236.742 655.803 236.78 678.17 236.779 700.639 236.785 723.007 236.753 745.393 236.796
0.037  538.989 236.848 561.419 236.84 583.807 236.813 606.19 236.867 628.607 236.846 650.944 236.84 673.352 236.866 695.8 236.858 718.171 236.827 740.508 236.856
0.038  534.057 236.913 556.445 236.897 578.855 236.924 601.207 236.919 623.593 236.916 646.034 236.917 668.432 236.899 690.774 236.896 713.195 236.922 735.543 236.931
0.039  528.97 236.986 551.36 237.009 573.742 237.013 596.116 237.002 618.484 237.038 640.901 237.042 663.322 237.017 685.715 237.026 708.066 237.023 730.453 237.005
0.04  523.703 237.076 546.103 237.053 568.484 237.107 590.891 237.103 613.264 237.147 635.732 237.103 658.061 237.085 680.449 237.065 702.84 237.117 725.192 237.147
0.041  518.364 237.19 540.761 237.186 563.108 237.153 585.533 237.196 607.916 237.164 630.28 237.236 652.671 237.185 675.063 237.176 697.456 237.21 719.871 237.238
0.042  512.828 237.476 535.256 237.368 557.609 237.306 580.06 237.287 602.378 237.304 624.771 237.274 647.21 237.3 669.563 237.277 691.992 237.31 714.347 237.291
0.043  507.179 238.645 529.654 237.938 552.053 237.639 574.537 237.527 596.889 237.446 619.294 237.397 641.677 237.347 664.054 237.391 686.492 237.368 708.834 237.337
0.044  501.428 239.964 523.972 238.748 546.452 238.079 568.92 237.812 591.313 237.621 613.672 237.534 636.08 237.499 658.466 237.485 680.869 237.471 703.248 237.466
0.045  495.618 241.294 518.181 239.676 540.677 238.715 563.123 238.133 585.596 237.881 608.004 237.709 630.411 237.646 652.854 237.625 675.179 237.553 697.617 237.556
0.046  489.701 242.692 512.237 240.666 534.774 239.392 557.288 238.677 579.761 238.201 602.18 237.974 624.613 237.86 647.064 237.731 669.354 237.725 691.816 237.67
0.047  483.81 244.352 506.294 241.838 528.845 240.246 551.359 239.219 573.835 238.612 596.32 238.269 618.729 238.04 641.196 237.898 663.549 237.884 685.966 237.829
0.048  477.766 246.171 500.306 243.213 522.789 241.234 545.364 239.944 567.847 239.126 590.279 238.627 612.79 238.278 635.189 238.12 657.606 238.051 680.006 238.017
0.049  471.724 248.11 494.163 244.697 516.698 242.31 539.232 240.665 561.751 239.681 584.271 239.021 606.738 238.599 629.188 238.368 651.579 238.248 673.986 238.196
0.05  465.577 250.127 488.013 246.275 510.552 243.48 533.069 241.597 555.59 240.356 578.104 239.493 600.618 239.011 623.098 238.649 645.489 238.459 667.912 238.36
0.051  459.392 252.57 481.831 248.033 504.291 244.858 526.834 242.656 549.402 241.109 571.894 240.08 594.396 239.408 616.926 238.979 639.292 238.779 661.752 238.66
0.052  453.229 255.126 475.582 250.025 498.063 246.291 520.622 243.744 543.113 241.9 565.7 240.696 588.18 239.855 610.607 239.343 633.078 239.043 655.489 238.921
0.053  447.038 257.735 469.3 252.098 491.778 247.96 514.264 244.988 536.786 242.84 559.355 241.425 581.858 240.422 604.327 239.802 626.773 239.413 649.198 239.239
0.054  440.92 260.813 463.083 254.416 485.433 249.713 507.93 246.283 530.435 243.888 552.933 242.204 575.473 241.037 597.992 240.311 620.492 239.83 642.825 239.647
0.055  434.67 264.08 456.828 256.937 479.131 251.705 501.546 247.846 524.095 245.051 546.58 243.073 569.13 241.729 591.63 240.837 614.11 240.326 636.53 240.06
0.056  428.537 267.514 450.524 259.672 472.858 253.836 495.194 249.465 517.661 246.307 540.22 244.079 562.759 242.472 585.203 241.511 607.705 240.887 630.069 240.579
0.057  422.419 271.326 444.319 262.651 466.532 256.168 488.903 251.261 511.286 247.781 533.806 245.16 556.335 243.387 578.822 242.174 601.269 241.453 623.725 241.081
0.058  416.295 275.163 438.098 265.812 460.207 258.64 482.537 253.257 504.943 249.272 527.388 246.384 549.916 244.364 572.389 242.937 594.88 242.054 617.265 241.712
0.059  410.227 279.582 431.985 269.243 453.98 261.338 476.257 255.397 498.648 250.952 521.094 247.71 543.517 245.425 566.068 243.82 588.462 242.909 610.884 242.444
0.06  404.248 284.033 425.94 272.867 447.879 264.261 470.029 257.688 492.334 252.761 514.742 249.185 537.254 246.586 559.641 244.83 582.124 243.721 604.535 243.165
0.061  398.276 288.823 419.881 276.74 441.731 267.37 463.841 260.131 486.143 254.748 508.53 250.746 530.925 247.879 553.381 245.936 575.834 244.672 598.163 244.079
0.062  392.465 293.869 413.935 280.813 435.755 270.645 457.804 262.84 480.002 256.873 502.35 252.475 524.7 249.286 547.141 247.056 569.567 245.704 591.92 245.033
0.063  386.761 299.122 408.11 285.098 429.862 274.138 451.812 265.647 473.97 259.15 496.254 254.367 518.659 250.82 541.049 248.357 563.359 246.905 585.75 246.098
0.064  381.12 304.649 402.404 289.675 424.053 277.832 445.956 268.693 468.041 261.632 490.281 256.341 512.606 252.483 534.942 249.776 557.349 248.145 579.646 247.285
0.065  375.59 310.464 396.854 294.456 418.395 281.776 440.267 271.919 462.258 264.237 484.443 258.499 506.74 254.295 529.069 251.344 551.405 249.478 573.688 248.58
0.066  370.207 316.378 391.418 299.409 412.925 285.942 434.649 275.303 456.634 267.099 478.751 260.806 501.021 256.23 523.322 252.962 545.571 250.964 567.863 249.982
0.067  364.947 322.553 386.13 304.612 407.608 290.174 429.256 278.834 451.148 270.028 473.256 263.247 495.423 258.339 517.689 254.784 539.976 252.598 562.205 251.457
0.068  359.86 328.819 381.008 309.905 402.404 294.672 424.029 282.579 445.897 273.139 467.914 265.913 490.074 260.543 512.27 256.754 534.554 254.333 556.749 253.17
0.069  354.898 335.295 376.104 315.42 397.49 299.331 419.049 286.48 440.871 276.459 462.791 268.681 484.887 262.913 507.083 258.81 529.29 256.224 551.446 254.906
0.07  350.149 341.843 371.339 321.005 392.685 304.093 414.248 290.574 435.977 279.869 457.877 271.597 479.904 265.448 502.123 261.024 524.247 258.185 546.42 256.865
0.071  345.5 348.367 366.778 326.73 388.15 309.017 409.608 294.752 431.321 283.47 453.185 274.656 475.232 268.05 497.264 263.361 519.42 260.232 541.522 258.583
0.072  341.054 354.931 362.406 332.457 383.831 314.005 405.274 299.126 426.969 287.191 448.748 277.868 470.728 270.759 492.788 265.606 514.887 262.027 536.952 259.701
0.073  336.77 361.399 358.255 338.203 379.655 319.11 401.152 303.472 422.805 290.948 444.579 281.095 466.491 273.546 488.517 267.856 510.551 263.708 532.652 260.738
0.074  332.617 367.614 354.283 343.918 375.699 324.122 397.247 307.908 418.81 294.802 440.561 284.388 462.436 276.285 484.408 270.049 506.448 265.381 528.491 261.762
0.075  328.637 373.695 350.432 349.451 372.014 329.144 393.54 312.351 415.099 298.635 436.864 287.725 458.689 279.067 480.627 272.248 502.614 266.968 524.668 262.657
0.076  324.725 379.396 346.755 354.769 368.388 334.063 389.962 316.772 411.607 302.542 433.294 291.03 455.116 281.79 477.005 274.456 498.986 268.533 520.999 263.605
0.077  320.991 384.676 343.158 359.921 364.989 338.83 386.664 321.117 408.265 306.413 429.9 294.352 451.746 284.502 473.586 276.591 495.55 270.078 517.601 264.515
0.078  317.3 389.545 339.725 364.835 361.729 343.491 383.407 325.363 405.075 310.164 426.74 297.608 448.534 287.276 470.384 278.765 492.309 271.652 514.314 265.546
0.079  313.671 394.037 336.415 369.404 358.49 347.847 380.341 329.453 402.025 313.904 423.722 300.848 445.454 289.978 467.313 280.975 489.197 273.232 511.211 266.516
0.08  310.069 398.125 333.105 373.685 355.453 352.067 377.363 333.413 399.072 317.492 420.779 304.013 442.525 292.643 464.33 282.985 486.259 274.67 508.233 267.382
0.081  306.563 401.675 329.891 377.457 352.394 355.955 374.405 337.024 396.214 320.593 417.974 306.547 439.663 294.724 461.487 284.41 483.325 275.707 505.303 268.343
0.082  303.035 404.926 326.615 380.987 349.32 359.437 371.563 340.196 393.367 323.128 415.113 308.594 436.752 296.305 458.632 285.712 480.451 276.769 502.414 269.181
0.083  299.545 407.609 323.541 384.004 346.463 362.471 368.767 343.034 390.642 325.491 412.358 310.547 434.038 297.782 455.859 287.027 477.73 277.711 499.695 269.999
0.084  296.178 409.937 320.429 386.657 343.627 365.181 366.099 345.494 388.058 327.641 409.742 312.387 431.451 299.389 453.204 288.366 475.077 278.896 497.035 270.933
0.085  292.892 411.844 317.413 388.947 340.809 367.595 363.496 347.837 385.512 329.759 407.242 314.235 428.955 300.906 450.659 289.569 472.541 279.955 494.481 271.838
0.086  289.746 413.418 314.648 390.924 338.264 369.677 361.052 350.02 383.087 331.694 404.849 315.949 426.514 302.404 448.283 290.688 470.128 280.988 492.059 272.707
0.087  286.705 414.755 311.868 392.669 335.749 371.655 358.691 351.91 380.813 333.473 402.533 317.515 424.259 303.768 446 291.914 467.767 281.976 489.738 273.543
0.088  283.703 415.956 309.224 394.157 333.301 373.303 356.384 353.66 378.574 335.111 400.359 319.066 422.035 305.024 443.778 293.015 465.58 282.924 487.464 274.358
0.089  280.925 416.917 306.673 395.493 330.97 374.837 354.285 355.308 376.459 336.65 398.316 320.41 419.974 306.294 441.682 294.107 463.512 283.836 485.357 275.101
0.09  278.235 417.802 304.245 396.683 328.816 376.277 352.185 356.768 374.545 338.129 396.303 321.785 418.019 307.581 439.708 295.2 461.544 284.735 483.407 275.812
0.091  275.641 418.532 301.918 397.693 326.676 377.492 350.294 358.223 372.637 339.495 394.425 323.068 416.166 308.768 437.887 296.243 459.655 285.601 481.532 276.473
0.092  273.137 419.263 299.703 398.674 324.661 378.646 348.413 359.539 370.815 340.836 392.701 324.343 414.4 309.872 436.044 297.215 457.801 286.471 479.69 277.272
0.093  270.767 419.915 297.588 399.529 322.812 379.741 346.67 360.848 369.103 342.021 391.038 325.45 412.706 310.85 434.385 298.136 456.179 287.271 478.026 277.969
0.094  268.48 420.465 295.598 400.371 320.988 380.793 344.98 362.02 367.553 343.152 389.44 326.479 411.136 311.799 432.836 299.017 454.563 288.049 476.442 278.656
0.095  266.353 420.988 293.693 401.149 319.266 381.722 343.433 363.13 366.073 344.225 387.965 327.521 409.696 312.744 431.33 299.886 453.117 288.804 474.944 279.303
0.096  264.255 421.537 291.851 401.845 317.691 382.663 341.957 364.219 364.645 345.308 386.537 328.499 408.294 313.688 429.985 300.68 451.727 289.468 473.539 279.855
0.097  262.334 422.035 290.166 402.578 316.159 383.546 340.571 365.217 363.298 346.307 385.242 329.439 406.965 314.545 428.654 301.485 450.354 290.143 472.184 280.475
0.098  260.481 422.48 288.541 403.233 314.636 384.393 339.249 366.218 362.017 347.293 383.962 330.355 405.727 315.419 427.392 302.228 449.166 290.707 470.969 281.036
0.099  258.698 422.973 286.972 403.83 313.276 385.153 337.93 367.201 360.784 348.207 382.787 331.251 404.512 316.148 426.211 302.877 447.951 291.338 469.766 281.477
0.1  256.989 423.352 285.434 404.469 311.88 385.915 336.714 368.003 359.634 349.15 381.658 332.106 403.431 316.879 425.111 303.522 446.846 291.92 468.6 281.943
0.101  255.363 423.735 283.993 404.96 310.594 386.553 335.543 368.947 358.518 349.962 380.572 332.794 402.346 317.633 423.994 304.153 445.702 292.481 467.504 282.441
0.102  253.776 424.007 282.607 405.459 309.387 387.256 334.427 369.75 357.472 350.743 379.599 333.542 401.341 318.314 423.003 304.701 444.699 293.013 466.47 282.892
0.103  252.227 424.368 281.311 405.934 308.279 387.979 333.379 370.545 356.47 351.577 378.532 334.255 400.312 318.955 422.041 305.281 443.772 293.492 465.478 283.307
0.104  250.863 424.638 280.041 406.4 307.136 388.628 332.316 371.306 355.518 352.34 377.65 334.979 399.431 319.532 421.109 305.877 442.825 294.036 464.574 283.727
0.105  249.461 424.83 278.857 406.841 306.04 389.278 331.401 372.062 354.626 353.115 376.763 335.697 398.528 320.198 420.197 306.483 441.97 294.541 463.694 284.141
0.106  248.186 424.942 277.704 407.269 305.041 389.85 330.456 372.786 353.71 353.856 375.958 336.358 397.662 320.83 419.391 307.065 441.102 295.042 462.81 284.576
0.107  246.956 425.119 276.621 407.662 304.105 390.507 329.609 373.387 352.943 354.532 375.087 337.039 396.932 321.39 418.611 307.595 440.347 295.482 462.097 284.97
0.108  245.78 425.176 275.596 407.99 303.169 391.022 328.745 373.983 352.155 355.152 374.328 337.643 396.196 321.98 417.886 308.089 439.556 295.865 461.305 285.356
0.109  244.605 425.19 274.572 408.226 302.248 391.475 327.962 374.509 351.423 355.789 373.664 338.226 395.469 322.519 417.136 308.55 438.829 296.254 460.575 285.736
0.11  243.522 425.174 273.617 408.489 301.428 391.815 327.165 375.077 350.653 356.381 372.902 338.802 394.725 322.996 416.462 309.037 438.136 296.651 459.878 286.081
0.111  242.419 425.13 272.638 408.66 300.536 392.307 326.39 375.649 349.925 356.869 372.258 339.305 394.043 323.533 415.742 309.483 437.481 296.996 459.169 286.43
0.112  241.425 425.036 271.73 408.765 299.763 392.631 325.695 376.122 349.279 357.41 371.606 339.817 393.432 324.006 415.089 309.911 436.773 297.411 458.572 286.738
0.113  240.414 424.919 270.884 408.954 298.99 393.022 325.008 376.614 348.603 357.934 370.97 340.326 392.817 324.462 414.51 310.318 436.221 297.767 457.941 287.096
0.114  239.473 424.74 270.068 409.064 298.244 393.373 324.375 377.144 347.986 358.531 370.337 340.785 392.214 324.881 413.885 310.696 435.605 298.09 457.328 287.358
0.115  238.636 424.488 269.262 409.142 297.574 393.713 323.682 377.596 347.409 359.03 369.789 341.272 391.663 325.341 413.341 311.049 435.008 298.429 456.753 287.621
0.116  237.729 424.4 268.524 409.207 296.927 394.034 323.116 378.027 346.846 359.58 369.235 341.745 391.084 325.726 412.792 311.436 434.443 298.795 456.211 287.941
0.117  236.914 424.189 267.781 409.303 296.25 394.366 322.532 378.529 346.251 359.964 368.698 342.123 390.592 326.116 412.294 311.768 433.946 299.088 455.708 288.216
0.118  236.067 424.024 267.001 409.346 295.614 394.641 321.965 378.876 345.768 360.445 368.183 342.641 390.063 326.498 411.797 312.154 433.447 299.411 455.189 288.437
0.119  235.323 423.806 266.343 409.399 295.001 394.965 321.372 379.271 345.222 360.842 367.735 343.042 389.604 326.852 411.264 312.424 433.001 299.694 454.662 288.752
0.12  234.511 423.612 265.678 409.435 294.439 395.291 320.858 379.561 344.801 361.236 367.221 343.354 389.171 327.237 410.866 312.761 432.534 299.996 454.215 288.934
