# Gnuplot File : positions of 10 particle(s) Monitored
# 1st Column : time, others : particle(s) number 0 1 2 3 4 5 6 7 8 9 
# nParticles : 10
0.001  604.884 264.384 622.305 268.792 639.565 273.179 656.618 277.541 673.507 281.813 690.179 286.019 706.727 290.252 723.124 294.433 739.326 298.544 755.407 302.61
0.002  603.81 265.272 620.471 270.501 638.652 273.814 656.126 277.753 673.153 281.866 689.976 286.048 706.595 290.199 722.935 294.378 739.207 298.526 755.234 302.601
0.003  602.727 266.304 619.261 271.584 637.759 274.573 655.512 278.13 672.783 282.084 689.643 286.119 706.29 290.201 722.725 294.343 738.965 298.452 755.016 302.556
0.004  601.588 267.263 618.203 272.471 636.838 275.254 654.792 278.59 672.253 282.269 689.272 286.253 705.958 290.288 722.497 294.356 738.694 298.41 754.797 302.516
0.005  600.572 268.183 617.234 273.259 635.959 275.894 654.055 279.053 671.67 282.595 688.802 286.409 705.63 290.373 722.182 294.373 738.469 298.469 754.561 302.519
0.006  599.61 268.983 616.316 273.978 635.146 276.477 653.363 279.501 671.018 282.961 688.308 286.597 705.264 290.482 721.857 294.443 738.199 298.475 754.292 302.492
0.007  598.707 269.7 615.441 274.705 634.31 277.081 652.638 280.021 670.455 283.276 687.836 286.855 704.771 290.653 721.476 294.534 737.848 298.497 753.992 302.548
0.008  597.841 270.399 614.62 275.302 633.534 277.61 651.915 280.43 669.819 283.623 687.307 287.075 704.323 290.828 721.096 294.644 737.484 298.603 753.647 302.595
0.009  597.084 271.027 613.81 275.879 632.737 278.176 651.196 280.902 669.175 284.015 686.709 287.364 703.848 290.99 720.622 294.79 737.106 298.657 753.299 302.655
0.01  596.277 271.629 613.049 276.438 631.975 278.72 650.469 281.311 668.553 284.319 686.138 287.651 703.375 291.206 720.175 294.934 736.682 298.789 752.88 302.767
0.011  595.445 272.2 612.326 276.932 631.27 279.2 649.799 281.747 667.86 284.714 685.536 287.963 702.804 291.437 719.645 295.125 736.199 298.95 752.449 302.928
0.012  594.793 272.707 611.541 277.443 630.523 279.627 649.106 282.174 667.232 285.069 684.936 288.237 702.247 291.669 719.192 295.355 735.768 299.128 751.955 303.032
0.013  594.01 273.252 610.862 277.94 629.813 280.107 648.397 282.582 666.606 285.445 684.299 288.528 701.681 291.934 718.611 295.529 735.252 299.291 751.509 303.216
0.014  593.325 273.704 610.167 278.361 629.129 280.516 647.726 282.989 665.938 285.792 683.732 288.866 701.117 292.198 718.121 295.781 734.765 299.486 750.989 303.385
0.015  592.614 274.166 609.499 278.836 628.449 280.951 647.09 283.384 665.249 286.165 683.095 289.213 700.496 292.451 717.521 295.948 734.151 299.707 750.429 303.595
0.016  591.959 274.611 608.781 279.219 627.755 281.32 646.352 283.769 664.586 286.489 682.44 289.52 699.891 292.766 716.921 296.235 733.611 299.928 749.883 303.817
0.017  591.267 275.044 608.171 279.624 627.1 281.774 645.671 284.161 663.922 286.88 681.802 289.82 699.271 293.072 716.385 296.509 733.011 300.179 749.303 304.029
0.018  590.632 275.461 607.502 280.014 626.465 282.104 645.011 284.513 663.246 287.202 681.156 290.134 698.691 293.345 715.729 296.746 732.413 300.442 748.728 304.25
0.019  589.94 275.848 606.831 280.405 625.768 282.522 644.345 284.902 662.602 287.589 680.497 290.469 698.006 293.661 715.088 297.058 731.805 300.673 748.111 304.509
0.02  589.317 276.243 606.219 280.787 625.089 282.909 643.691 285.246 661.94 287.889 679.828 290.832 697.332 293.968 714.451 297.338 731.179 300.938 747.485 304.762
0.021  588.695 276.652 605.53 281.131 624.442 283.253 643.012 285.631 661.288 288.255 679.217 291.123 696.686 294.272 713.813 297.638 730.55 301.23 746.832 305.012
0.022  588.015 277.009 604.947 281.504 623.794 283.606 642.354 285.954 660.609 288.582 678.514 291.451 696.019 294.588 713.163 297.967 729.901 301.562 746.183 305.333
0.023  587.39 277.356 604.282 281.854 623.134 283.965 641.711 286.344 659.918 288.93 677.832 291.81 695.367 294.904 712.462 298.265 729.22 301.839 745.46 305.623
0.024  586.786 277.743 603.643 282.182 622.483 284.301 641.042 286.693 659.276 289.255 677.13 292.147 694.699 295.211 711.809 298.544 728.559 302.122 744.815 305.898
0.025  586.132 278.048 603.05 282.54 621.813 284.671 640.361 287.025 658.603 289.64 676.452 292.461 693.995 295.568 711.147 298.875 727.853 302.442 744.147 306.22
0.026  585.525 278.4 602.433 282.865 621.19 285.004 639.676 287.39 657.924 289.975 675.818 292.798 693.291 295.889 710.453 299.233 727.104 302.776 743.376 306.539
0.027  584.899 278.737 601.743 283.187 620.529 285.34 639.02 287.716 657.226 290.289 675.085 293.115 692.614 296.218 709.716 299.561 726.443 303.069 742.676 306.838
0.028  584.283 279.047 601.128 283.517 619.896 285.7 638.353 288.065 656.536 290.664 674.36 293.488 691.884 296.547 709.035 299.838 725.724 303.371 741.999 307.149
0.029  583.662 279.399 600.509 283.818 619.251 285.977 637.659 288.376 655.873 290.966 673.727 293.812 691.196 296.902 708.31 300.219 724.982 303.739 741.275 307.481
0.03  583.053 279.688 599.908 284.137 618.574 286.326 637.049 288.717 655.174 291.322 673.005 294.145 690.474 297.205 707.633 300.472 724.277 304.042 740.516 307.771
0.031  582.791 279.66 599.439 284.295 617.99 286.589 636.396 289.021 654.548 291.672 672.293 294.462 689.782 297.582 706.867 300.872 723.554 304.362 739.775 308.108
0.032  582.501 279.696 599.058 284.396 617.468 286.816 635.787 289.311 653.848 291.96 671.607 294.802 689.067 297.872 706.131 301.155 722.814 304.688 739.039 308.437
0.033  582.239 279.673 598.686 284.495 616.972 286.992 635.211 289.571 653.204 292.254 670.997 295.12 688.364 298.223 705.474 301.526 722.062 305.051 738.304 308.824
0.034  581.994 279.607 598.304 284.58 616.505 287.135 634.654 289.782 652.556 292.5 670.297 295.484 687.679 298.536 704.658 301.851 721.317 305.381 737.531 309.09
0.035  581.696 279.576 597.953 284.617 616.129 287.289 634.141 290.034 651.992 292.793 669.663 295.748 686.992 298.853 703.997 302.187 720.612 305.701 736.795 309.475
0.036  581.479 279.538 597.651 284.668 615.662 287.432 633.589 290.199 651.404 293.076 669.056 296.013 686.3 299.172 703.274 302.492 719.888 306.053 736.03 309.8
0.037  581.227 279.495 597.304 284.678 615.244 287.555 633.144 290.426 650.901 293.251 668.384 296.29 685.713 299.494 702.591 302.821 719.15 306.348 735.336 310.128
0.038  580.933 279.457 596.975 284.748 614.898 287.651 632.697 290.554 650.377 293.53 667.842 296.6 685.051 299.777 701.941 303.114 718.466 306.713 734.614 310.45
0.039  580.734 279.411 596.677 284.732 614.451 287.743 632.207 290.691 649.836 293.755 667.249 296.837 684.434 300.058 701.262 303.466 717.819 307.039 733.936 310.742
0.04  580.477 279.397 596.389 284.739 614.146 287.844 631.79 290.841 649.283 293.942 666.72 297.079 683.76 300.354 700.626 303.759 717.106 307.376 733.263 311.071
0.041  580.223 279.336 596.074 284.781 613.779 287.883 631.37 291.006 648.879 294.109 666.14 297.336 683.2 300.604 700.037 304.058 716.465 307.637 732.542 311.389
0.042  579.996 279.291 595.815 284.775 613.429 288.002 630.924 291.158 648.371 294.333 665.636 297.545 682.641 300.902 699.389 304.335 715.795 307.959 731.914 311.715
0.043  579.732 279.248 595.512 284.791 613.058 288.072 630.534 291.271 647.919 294.497 665.138 297.822 682.08 301.142 698.781 304.616 715.188 308.22 731.24 312.022
0.044  579.488 279.202 595.256 284.79 612.745 288.105 630.154 291.383 647.445 294.696 664.607 297.983 681.521 301.368 698.194 304.899 714.54 308.558 730.594 312.29
0.045  579.221 279.183 594.991 284.775 612.412 288.227 629.75 291.531 647.011 294.894 664.091 298.231 680.937 301.637 697.61 305.165 713.971 308.833 730.018 312.589
0.046  579.014 279.066 594.728 284.781 612.094 288.261 629.396 291.655 646.582 295.04 663.588 298.443 680.452 301.895 697.064 305.415 713.363 309.094 729.372 312.876
0.047  578.806 279.076 594.462 284.785 611.786 288.33 628.956 291.748 646.162 295.202 663.129 298.629 679.96 302.105 696.511 305.694 712.772 309.356 728.771 313.161
0.048  578.539 279.054 594.166 284.789 611.445 288.361 628.658 291.886 645.732 295.393 662.654 298.814 679.437 302.359 695.957 305.943 712.232 309.644 728.177 313.398
0.049  578.271 278.995 593.886 284.787 611.157 288.416 628.256 291.96 645.306 295.478 662.203 299.018 678.891 302.592 695.404 306.186 711.594 309.872 727.641 313.653
0.05  578.055 278.95 593.646 284.769 610.842 288.427 627.871 292.067 644.914 295.648 661.721 299.203 678.405 302.77 694.871 306.397 711.074 310.131 727.065 313.94
0.051  577.801 278.874 593.4 284.742 610.498 288.528 627.541 292.186 644.53 295.779 661.315 299.372 677.957 302.995 694.384 306.654 710.562 310.34 726.508 314.173
0.052  577.554 278.845 593.107 284.753 610.161 288.589 627.232 292.249 644.086 295.925 660.876 299.543 677.474 303.172 693.865 306.872 710.022 310.627 725.955 314.393
0.053  577.371 278.798 592.837 284.726 609.906 288.594 626.877 292.329 643.715 296.041 660.442 299.705 676.996 303.384 693.347 307.087 709.518 310.8 725.428 314.693
0.054  577.103 278.764 592.584 284.709 609.586 288.664 626.537 292.453 643.346 296.168 660.005 299.865 676.573 303.535 692.878 307.272 709.039 311.06 724.901 314.912
0.055  576.858 278.723 592.323 284.723 609.292 288.659 626.173 292.52 642.98 296.28 659.583 300.034 676.086 303.721 692.389 307.489 708.529 311.281 724.432 315.104
0.056  576.589 278.712 592.085 284.719 608.995 288.719 625.845 292.578 642.546 296.397 659.216 300.153 675.639 303.94 691.95 307.69 708.045 311.499 723.872 315.292
0.057  576.383 278.667 591.816 284.695 608.661 288.74 625.495 292.694 642.167 296.563 658.787 300.331 675.202 304.076 691.458 307.907 707.547 311.694 723.431 315.521
0.058  576.147 278.619 591.514 284.708 608.424 288.802 625.215 292.695 641.88 296.603 658.389 300.444 674.797 304.289 691.02 308.086 707.029 311.888 722.909 315.749
0.059  575.889 278.546 591.328 284.694 608.116 288.784 624.843 292.809 641.53 296.713 658.009 300.595 674.377 304.424 690.575 308.253 706.6 312.092 722.444 315.923
0.06  575.679 278.532 591.041 284.624 607.874 288.846 624.55 292.899 641.106 296.821 657.621 300.725 673.938 304.601 690.128 308.403 706.193 312.28 722.026 316.126
0.061  575.483 278.488 590.811 284.627 607.562 288.887 624.21 292.917 640.802 296.942 657.217 300.864 673.525 304.715 689.713 308.598 705.703 312.459 721.522 316.333
0.062  575.236 278.4 590.583 284.641 607.281 288.854 623.919 293.004 640.397 297.02 656.86 300.997 673.16 304.876 689.289 308.761 705.286 312.617 721.089 316.49
0.063  574.976 278.351 590.301 284.612 606.998 288.888 623.607 293.048 640.124 297.128 656.48 301.075 672.738 305.043 688.868 308.921 704.83 312.791 720.664 316.646
0.064  574.804 278.349 590.092 284.575 606.727 288.907 623.321 293.102 639.798 297.193 656.146 301.225 672.435 305.159 688.465 309.081 704.377 312.964 720.241 316.826
0.065  574.559 278.313 589.828 284.564 606.457 288.953 623.013 293.201 639.438 297.299 655.811 301.323 672.003 305.313 688.08 309.233 703.993 313.097 719.805 316.991
0.066  574.339 278.237 589.622 284.522 606.219 288.946 622.687 293.219 639.129 297.389 655.43 301.462 671.619 305.417 687.678 309.334 703.635 313.256 719.374 317.16
0.067  574.116 278.179 589.354 284.507 605.934 288.996 622.442 293.291 638.792 297.417 655.069 301.487 671.263 305.593 687.317 309.465 703.215 313.423 718.972 317.314
0.068  573.888 278.118 589.119 284.471 605.635 288.992 622.146 293.299 638.476 297.512 654.747 301.62 670.88 305.664 686.92 309.65 702.829 313.574 718.616 317.442
0.069  573.684 278.062 588.959 284.464 605.46 289.005 621.828 293.382 638.211 297.578 654.415 301.746 670.547 305.747 686.552 309.753 702.406 313.712 718.18 317.563
0.07  573.417 277.997 588.728 284.372 605.157 288.966 621.573 293.373 637.882 297.653 654.038 301.804 670.197 305.912 686.188 309.877 702.051 313.834 717.806 317.761
0.071  573.232 277.969 588.42 284.347 604.92 288.971 621.273 293.44 637.59 297.721 653.738 301.927 669.856 305.992 685.83 310.012 701.697 314.003 717.433 317.9
0.072  573.001 277.9 588.21 284.336 604.655 288.998 621.034 293.437 637.279 297.811 653.486 301.988 669.532 306.095 685.485 310.132 701.342 314.08 717.063 317.997
0.073  572.783 277.812 587.98 284.274 604.411 288.983 620.758 293.452 636.999 297.813 653.159 302.078 669.217 306.189 685.131 310.205 700.963 314.244 716.65 318.063
0.074  572.538 277.752 587.743 284.266 604.173 288.959 620.478 293.446 636.69 297.878 652.8 302.146 668.816 306.287 684.776 310.357 700.599 314.302 716.322 318.239
0.075  572.332 277.704 587.528 284.223 603.883 288.925 620.227 293.561 636.385 297.921 652.485 302.181 668.545 306.365 684.437 310.442 700.275 314.41 715.965 318.343
0.076  572.079 277.604 587.301 284.141 603.646 288.956 619.907 293.552 636.125 297.971 652.216 302.281 668.191 306.468 684.067 310.532 699.921 314.539 715.66 318.477
0.077  571.906 277.554 587.063 284.134 603.412 288.932 619.636 293.566 635.811 298.022 651.866 302.351 667.847 306.535 683.72 310.646 699.542 314.649 715.279 318.555
0.078  571.691 277.526 586.864 284.1 603.161 288.916 619.357 293.559 635.571 298.048 651.605 302.4 667.572 306.59 683.465 310.724 699.238 314.737 714.955 318.663
0.079  571.456 277.433 586.629 284.001 602.946 288.897 619.129 293.546 635.263 298.082 651.33 302.441 667.26 306.663 683.12 310.791 698.904 314.821 714.581 318.793
0.08  571.241 277.341 586.392 283.962 602.69 288.851 618.858 293.566 634.949 298.12 651.017 302.506 666.96 306.761 682.794 310.845 698.603 314.895 714.298 318.847
0.081  570.972 277.264 586.135 283.915 602.435 288.819 618.614 293.55 634.677 298.121 650.717 302.53 666.618 306.814 682.481 310.928 698.256 314.953 713.959 318.931
0.082  570.764 277.242 585.933 283.835 602.176 288.809 618.341 293.565 634.434 298.15 650.437 302.574 666.322 306.863 682.167 311.005 697.936 315.079 713.648 319.004
0.083  570.517 277.157 585.667 283.816 601.958 288.805 618.098 293.589 634.141 298.162 650.144 302.598 666.043 306.894 681.867 311.076 697.62 315.13 713.334 319.089
0.084  570.295 277.126 585.457 283.783 601.704 288.727 617.841 293.554 633.873 298.181 649.894 302.673 665.771 306.953 681.563 311.143 697.282 315.18 713.011 319.17
0.085  570.058 277.034 585.211 283.686 601.446 288.706 617.543 293.542 633.626 298.204 649.595 302.683 665.444 306.999 681.237 311.222 697.02 315.298 712.694 319.224
0.086  569.818 276.968 584.991 283.616 601.208 288.707 617.295 293.527 633.368 298.216 649.319 302.71 665.212 307.038 680.947 311.245 696.711 315.3 712.374 319.276
0.087  569.588 276.882 584.733 283.592 600.963 288.686 617.08 293.519 633.089 298.225 649.045 302.711 664.904 307.078 680.676 311.271 696.435 315.369 712.108 319.359
0.088  569.326 276.799 584.538 283.559 600.68 288.613 616.846 293.486 632.813 298.219 648.727 302.758 664.576 307.099 680.391 311.349 696.117 315.41 711.831 319.392
0.089  569.088 276.733 584.262 283.472 600.442 288.58 616.55 293.519 632.515 298.184 648.463 302.784 664.267 307.152 680.076 311.364 695.821 315.484 711.518 319.456
0.09  568.868 276.68 584.035 283.41 600.192 288.538 616.292 293.5 632.255 298.203 648.193 302.79 663.99 307.163 679.803 311.378 695.551 315.549 711.222 319.503
0.091  568.619 276.619 583.75 283.363 599.952 288.507 616.005 293.485 631.976 298.232 647.895 302.773 663.748 307.221 679.5 311.456 695.29 315.564 710.962 319.554
0.092  568.351 276.536 583.547 283.234 599.695 288.463 615.739 293.419 631.758 298.205 647.648 302.833 663.485 307.19 679.22 311.479 694.95 315.602 710.651 319.571
0.093  568.145 276.488 583.339 283.23 599.459 288.447 615.487 293.387 631.472 298.205 647.384 302.811 663.18 307.257 678.963 311.519 694.682 315.653 710.362 319.605
0.094  567.875 276.408 583.113 283.126 599.201 288.339 615.233 293.383 631.23 298.191 647.089 302.816 662.889 307.252 678.667 311.496 694.396 315.663 710.101 319.638
0.095  567.617 276.331 582.839 283.088 598.989 288.358 615.008 293.362 630.947 298.137 646.817 302.797 662.611 307.262 678.395 311.567 694.116 315.706 709.778 319.714
0.096  567.402 276.24 582.56 283.038 598.705 288.264 614.763 293.335 630.68 298.177 646.585 302.825 662.364 307.263 678.12 311.591 693.819 315.742 709.518 319.699
0.097  567.122 276.188 582.321 282.924 598.444 288.231 614.499 293.272 630.408 298.167 646.303 302.77 662.081 307.288 677.828 311.589 693.566 315.725 709.256 319.731
0.098  566.847 276.12 582.08 282.926 598.207 288.174 614.196 293.255 630.142 298.109 646.044 302.793 661.792 307.292 677.566 311.602 693.281 315.768 708.972 319.775
0.099  566.62 276.05 581.864 282.825 597.953 288.145 613.97 293.2 629.887 298.098 645.785 302.777 661.57 307.316 677.278 311.584 692.994 315.748 708.711 319.773
0.1  566.351 276.004 581.572 282.751 597.691 288.097 613.702 293.18 629.641 298.063 645.513 302.723 661.261 307.268 677.019 311.629 692.731 315.775 708.443 319.78
0.101  566.07 275.905 581.367 282.668 597.439 288.04 613.474 293.128 629.359 298.078 645.22 302.73 661.032 307.272 676.783 311.616 692.447 315.75 708.175 319.777
0.102  565.819 275.853 581.103 282.577 597.192 287.933 613.194 293.086 629.106 297.996 644.968 302.725 660.757 307.264 676.5 311.614 692.191 315.773 707.882 319.804
0.103  565.584 275.769 580.891 282.499 596.996 287.89 612.962 293.048 628.896 297.99 644.701 302.685 660.489 307.253 676.241 311.597 691.95 315.777 707.664 319.826
0.104  565.325 275.728 580.643 282.356 596.716 287.824 612.727 293.001 628.631 297.93 644.458 302.691 660.212 307.234 675.987 311.614 691.686 315.749 707.37 319.799
0.105  565.111 275.547 580.4 282.341 596.511 287.764 612.439 292.924 628.366 297.878 644.227 302.673 660.026 307.256 675.7 311.599 691.427 315.786 707.136 319.817
0.106  564.836 275.433 580.186 282.219 596.286 287.656 612.209 292.884 628.113 297.839 643.964 302.67 659.681 307.2 675.443 311.593 691.179 315.807 706.839 319.769
0.107  564.613 275.316 579.968 282.118 596.025 287.598 612.007 292.825 627.858 297.805 643.705 302.589 659.458 307.203 675.227 311.569 690.909 315.791 706.62 319.755
0.108  564.381 275.228 579.69 282.033 595.769 287.497 611.758 292.75 627.645 297.771 643.415 302.556 659.229 307.173 674.953 311.538 690.698 315.767 706.386 319.739
0.109  564.103 275.218 579.463 281.927 595.52 287.461 611.487 292.69 627.372 297.705 643.161 302.514 658.972 307.094 674.674 311.515 690.424 315.709 706.134 319.782
0.11  563.821 275.095 579.201 281.847 595.262 287.353 611.228 292.634 627.116 297.669 642.946 302.46 658.703 307.112 674.458 311.475 690.168 315.678 705.859 319.742
0.111  563.546 275.066 578.92 281.754 595.024 287.319 611.014 292.584 626.866 297.587 642.708 302.462 658.467 307.055 674.214 311.476 689.897 315.693 705.572 319.705
0.112  563.274 274.959 578.702 281.668 594.78 287.211 610.711 292.512 626.604 297.569 642.408 302.425 658.167 307.025 673.936 311.441 689.661 315.666 705.371 319.672
0.113  563.008 274.874 578.401 281.603 594.49 287.091 610.454 292.42 626.34 297.513 642.186 302.287 657.983 306.96 673.709 311.386 689.443 315.617 705.12 319.664
0.114  562.716 274.799 578.193 281.502 594.251 287.03 610.239 292.346 626.128 297.418 641.934 302.301 657.662 306.924 673.437 311.345 689.144 315.623 704.868 319.608
0.115  562.437 274.716 577.927 281.385 593.981 286.949 609.948 292.295 625.856 297.38 641.666 302.208 657.425 306.877 673.189 311.294 688.893 315.566 704.636 319.612
0.116  562.156 274.637 577.636 281.327 593.746 286.893 609.724 292.219 625.606 297.309 641.439 302.184 657.206 306.831 672.922 311.297 688.638 315.528 704.339 319.554
0.117  561.869 274.543 577.404 281.198 593.48 286.798 609.438 292.11 625.371 297.231 641.15 302.122 656.897 306.784 672.686 311.219 688.426 315.491 704.13 319.537
0.118  561.616 274.461 577.138 281.096 593.252 286.683 609.192 292.086 625.057 297.183 640.904 302.095 656.674 306.749 672.436 311.201 688.128 315.402 703.89 319.505
0.119  561.322 274.38 576.88 280.985 592.962 286.582 608.932 291.975 624.811 297.114 640.645 302.038 656.443 306.678 672.166 311.151 687.899 315.389 703.655 319.439
0.12  561.033 274.313 576.639 280.87 592.727 286.502 608.707 291.888 624.577 297.051 640.41 301.92 656.152 306.618 671.911 311.082 687.676 315.325 703.4 319.356
