# Gnuplot File : positions of 10 particle(s) Monitored
# 1st Column : time, others : particle(s) number 0 1 2 3 4 5 6 7 8 9 
# nParticles : 10
0.001  176.198 100.542 161.263 89.2829 146.625 78.2479 132.244 67.4002 118.217 56.8325 104.453 46.4634 90.8766 36.2275 77.5518 26.2358 64.5176 16.3672 51.7759 6.7864
0.002  176.251 100.514 161.322 89.3099 146.652 78.282 132.303 67.4291 118.235 56.8728 104.417 46.448 90.9273 36.3175 77.6412 26.2333 64.5356 16.4157 51.773 6.77709
0.003  176.284 100.6 161.355 89.3398 146.643 78.2509 132.366 67.4917 118.3 56.8892 104.502 46.5181 90.9759 36.3281 77.6343 26.2442 64.6246 16.4948 51.8275 6.87503
0.004  176.427 100.639 161.449 89.3842 146.776 78.33 132.501 67.5481 118.366 56.9623 104.564 46.5286 90.9907 36.3709 77.7429 26.3531 64.6595 16.534 51.9012 6.88919
0.005  176.498 100.701 161.568 89.5021 146.949 78.4169 132.564 67.614 118.488 57.0348 104.641 46.6397 91.115 36.4106 77.7979 26.391 64.7692 16.5519 51.9926 6.98427
0.006  176.662 100.82 161.674 89.5958 147.051 78.5817 132.661 67.7527 118.599 57.1091 104.791 46.7148 91.2225 36.5266 77.9286 26.4886 64.9233 16.6695 52.0919 7.0674
0.007  176.835 100.988 161.861 89.7033 147.196 78.6582 132.854 67.8623 118.762 57.251 104.938 46.875 91.3656 36.6441 78.1461 26.6586 65.0209 16.7804 52.271 7.16125
0.008  177.005 101.168 162.12 89.8358 147.446 78.8024 133.024 68.0291 118.941 57.3926 105.109 47.0181 91.5529 36.8057 78.319 26.7238 65.2073 16.9012 52.4388 7.27004
0.009  177.25 101.284 162.292 90.0626 147.599 79.0071 133.245 68.1681 119.18 57.5608 105.329 47.1352 91.8036 36.9047 78.5225 26.9154 65.4181 17.093 52.632 7.42152
0.01  177.471 101.488 162.57 90.2701 147.9 79.1333 133.529 68.3739 119.403 57.7053 105.611 47.3068 92.0057 37.0767 78.7107 27.073 65.6541 17.1973 52.8159 7.62207
0.011  177.793 101.703 162.845 90.4304 148.148 79.4047 133.766 68.5401 119.637 57.9235 105.802 47.5136 92.2599 37.2747 78.9323 27.2888 65.9052 17.4091 53.0624 7.79785
0.012  178.159 101.918 163.161 90.6383 148.475 79.6053 134.062 68.7357 119.957 58.1426 106.118 47.7271 92.5489 37.5339 79.2207 27.4534 66.1274 17.6035 53.3584 7.97272
0.013  178.439 102.197 163.496 90.9331 148.839 79.898 134.421 69.0195 120.294 58.4085 106.441 47.9058 92.8444 37.7198 79.5289 27.7025 66.4073 17.8144 53.6546 8.15636
0.014  178.892 102.452 163.876 91.1779 149.162 80.0774 134.792 69.2837 120.66 58.6337 106.795 48.1831 93.1835 37.942 79.8794 27.9066 66.7569 18.0898 53.9054 8.37726
0.015  179.319 102.799 164.256 91.4956 149.574 80.4038 135.139 69.5743 121.011 58.9286 107.163 48.4715 93.536 38.2148 80.2164 28.1929 67.0967 18.3352 54.2573 8.61189
0.016  179.684 103.103 164.685 91.7905 149.948 80.683 135.568 69.9143 121.42 59.2456 107.523 48.7532 93.895 38.4882 80.5632 28.4631 67.4335 18.5263 54.6224 8.91481
0.017  180.121 103.473 165.152 92.1867 150.395 81.065 135.984 70.1932 121.849 59.5357 107.962 49.0603 94.3428 38.8158 80.9625 28.7656 67.8797 18.8949 55.0063 9.14466
0.018  180.68 103.848 165.665 92.5272 150.903 81.4398 136.475 70.5505 122.307 59.8737 108.386 49.3565 94.7735 39.1308 81.369 29.042 68.2743 19.1904 55.3881 9.4963
0.019  181.177 104.223 166.164 92.9632 151.399 81.8351 136.94 70.929 122.8 60.2116 108.887 49.7454 95.231 39.4797 81.8657 29.3988 68.742 19.5129 55.8405 9.82136
0.02  181.682 104.627 166.7 93.2745 151.88 82.233 137.447 71.2685 123.312 60.5931 109.349 50.1588 95.7275 39.877 82.3103 29.7588 69.2062 19.8599 56.3161 10.1738
0.021  182.363 105.063 167.259 93.7394 152.474 82.6271 138.056 71.7008 123.808 60.9807 109.883 50.5214 96.2513 40.2155 82.8687 30.1069 69.7097 20.2414 56.7747 10.4923
0.022  182.973 105.539 167.887 94.1826 153.088 83.0025 138.548 72.0963 124.388 61.4271 110.467 50.9271 96.7736 40.6331 83.3994 30.5509 70.2552 20.6508 57.3072 10.9056
0.023  183.602 105.989 168.435 94.687 153.669 83.5121 139.182 72.5453 124.982 61.8413 111.061 51.3222 97.339 41.027 83.9382 30.9849 70.7544 21.0226 57.8273 11.2423
0.024  184.237 106.484 169.188 95.1626 154.315 83.9959 139.822 73.0686 125.572 62.3562 111.614 51.8147 97.9097 41.4716 84.5283 31.3846 71.3202 21.4458 58.3664 11.719
0.025  184.99 106.983 169.803 95.593 155.012 84.4772 140.481 73.5423 126.239 62.772 112.279 52.2743 98.5568 41.9707 85.079 31.8085 71.9331 21.8958 58.9694 12.1611
0.026  185.763 107.594 170.596 96.1607 155.738 84.9739 141.216 74.0437 126.889 63.3277 112.927 52.7582 99.1741 42.4264 85.7434 32.2822 72.5474 22.3432 59.6055 12.5954
0.027  186.451 108.142 171.327 96.7344 156.481 85.548 141.89 74.5507 127.607 63.7357 113.616 53.2612 99.8697 42.9404 86.394 32.7817 73.2124 22.8438 60.2549 13.063
0.028  187.274 108.72 172.078 97.3106 157.22 86.0945 142.635 75.112 128.334 64.3923 114.349 53.792 100.574 43.4709 87.0677 33.3383 73.8697 23.326 60.905 13.5428
0.029  188.086 109.307 172.959 97.9088 158.001 86.697 143.457 75.7036 129.124 64.9198 115.054 54.3766 101.293 43.9919 87.8113 33.8124 74.5491 23.8526 61.5163 14.0797
0.03  188.97 110.044 173.737 98.5494 158.793 87.3294 144.237 76.3166 129.885 65.5042 115.817 54.9269 102.069 44.5261 88.5356 34.3664 75.3093 24.3829 62.259 14.5777
0.031  189.832 110.674 174.6 99.211 159.675 87.9453 145.108 76.9775 130.707 66.1406 116.632 55.4797 102.87 45.1261 89.3121 34.9369 76.0499 24.9617 62.9825 15.1204
0.032  190.815 111.333 175.511 99.8243 160.592 88.584 145.92 77.5664 131.545 66.7344 117.482 56.1392 103.647 45.7413 90.1271 35.501 76.8207 25.4937 63.7473 15.6832
0.033  191.755 112.063 176.453 100.608 161.475 89.2311 146.832 78.2157 132.423 67.4101 118.29 56.7444 104.481 46.3348 90.844 36.1138 77.6339 26.1398 64.4959 16.2875
0.034  192.676 112.761 177.401 101.265 162.384 89.9668 147.742 78.9179 133.322 68.0231 119.212 57.4708 105.369 46.9279 91.7432 36.7594 78.4435 26.713 65.3115 16.8491
0.035  193.678 113.499 178.409 101.971 163.398 90.6693 148.627 79.5936 134.255 68.7625 120.073 58.0555 106.202 47.6436 92.625 37.3913 79.2599 27.3693 66.1814 17.4549
0.036  194.766 114.295 179.406 102.749 164.388 91.4267 149.651 80.3348 135.19 69.4162 121.045 58.8163 107.152 48.3107 93.5135 38.0911 80.1589 28.0287 67.0495 18.1403
0.037  195.83 115.111 180.489 103.533 165.4 92.1697 150.687 81.0669 136.19 70.1468 121.988 59.4928 108.056 49.0047 94.4163 38.7843 81.0231 28.693 67.9166 18.8066
0.038  196.952 115.881 181.524 104.32 166.45 92.9977 151.701 81.8434 137.177 70.9257 122.971 60.2124 109.06 49.7288 95.3872 39.4577 81.9977 29.3897 68.847 19.4291
0.039  198.086 116.751 182.688 105.2 167.527 93.7702 152.75 82.6529 138.252 71.7466 124.053 61.0332 110.052 50.5134 96.3697 40.1678 82.9207 30.0378 69.7788 20.1585
0.04  199.277 117.659 183.81 105.982 168.676 94.579 153.869 83.4319 139.328 72.4489 125.053 61.7899 111.052 51.2597 97.3931 40.9266 83.9559 30.771 70.7052 20.8435
0.041  200.488 118.578 184.971 106.89 169.852 95.5194 154.932 84.2854 140.411 73.3425 126.133 62.6186 112.121 52.0581 98.4246 41.6922 84.9275 31.5542 71.7452 21.6028
0.042  201.749 119.454 186.201 107.804 171.02 96.3935 156.118 85.1516 141.554 74.1946 127.235 63.4055 113.209 52.8066 99.4865 42.492 85.991 32.3419 72.7494 22.3789
0.043  202.976 120.402 187.473 108.716 172.246 97.2553 157.328 86.0585 142.727 75.0357 128.393 64.2958 114.329 53.6681 100.562 43.274 87.0544 33.1284 73.8087 23.1412
0.044  204.265 121.375 188.753 109.675 173.472 98.173 158.514 86.9529 143.893 75.8705 129.565 65.12 115.463 54.5067 101.708 44.0943 88.1362 33.9499 74.8502 23.9232
0.045  205.647 122.353 189.99 110.584 174.749 99.1737 159.816 87.8747 145.086 76.8304 130.73 66.0093 116.676 55.4124 102.8 44.9778 89.2409 34.7732 75.9587 24.7578
0.046  206.989 123.361 191.339 111.6 176.061 100.104 161.105 88.7885 146.371 77.7451 131.953 66.9047 117.86 56.2443 104 45.8252 90.4498 35.649 77.0467 25.6194
0.047  208.376 124.445 192.728 112.667 177.355 101.046 162.387 89.7823 147.689 78.7091 133.241 67.8707 119.079 57.2065 105.161 46.7078 91.535 36.5203 78.2322 26.413
0.048  209.776 125.468 194.133 113.667 178.803 102.143 163.74 90.794 148.948 79.7169 134.58 68.7999 120.314 58.0982 106.455 47.688 92.772 37.3885 79.4153 27.3127
0.049  211.312 126.604 195.558 114.741 180.164 103.166 165.142 91.8206 150.32 80.6952 135.868 69.7873 121.604 59.0475 107.731 48.5637 94.0129 38.2927 80.6486 28.2128
0.05  212.784 127.647 197.025 115.886 181.618 104.255 166.515 92.8602 151.659 81.7142 137.172 70.7907 122.918 60.0359 108.982 49.5313 95.2644 39.2392 81.84 29.1968
0.051  214.315 128.814 198.501 116.972 183.097 105.28 167.981 93.8751 153.094 82.7285 138.531 71.7513 124.256 61.0316 110.281 50.5061 96.5821 40.1849 83.1212 30.0504
0.052  215.867 129.992 200.118 118.103 184.593 106.438 169.411 94.9904 154.555 83.8238 139.961 72.8214 125.682 62.1349 111.654 51.5297 97.8895 41.1674 84.4081 31.0522
0.053  217.504 131.242 201.648 119.29 186.153 107.608 170.944 96.1239 156.019 84.8897 141.402 73.902 127.064 63.108 113.049 52.5672 99.2051 42.1934 85.7536 32.0038
0.054  219.135 132.403 203.296 120.467 187.701 108.746 172.479 97.2414 157.506 85.9735 142.854 75.0091 128.527 64.23 114.381 53.6256 100.62 43.2022 87.0891 32.9833
0.055  220.85 133.647 204.892 121.714 189.37 109.934 174.04 98.4533 159.06 87.193 144.364 76.1288 129.974 65.2954 115.866 54.6484 102.025 44.2182 88.4637 34.0194
0.056  222.53 134.942 206.569 122.929 190.896 111.149 175.617 99.6218 160.621 88.2852 145.935 77.2683 131.458 66.3803 117.375 55.7715 103.439 45.2844 89.8437 35.0486
0.057  224.279 136.271 208.275 124.172 192.625 112.389 177.247 100.842 162.204 89.5169 147.464 78.4501 132.961 67.5232 118.821 56.8731 104.942 46.3998 91.2763 36.1855
0.058  226.084 137.55 209.996 125.511 194.327 113.652 178.899 102.049 163.847 90.7447 149.069 79.5667 134.542 68.6984 120.396 57.9921 106.391 47.4815 92.7431 37.1905
0.059  227.86 138.923 211.79 126.86 196.054 114.954 180.604 103.33 165.505 91.9411 150.706 80.8209 136.17 69.8653 121.895 59.137 107.943 48.62 94.3089 38.3361
0.06  229.736 140.264 213.551 128.184 197.859 116.279 182.36 104.653 167.202 93.2144 152.393 82.0555 137.751 71.0471 123.51 60.3277 109.505 49.833 95.7696 39.4774
0.061  231.609 141.703 215.499 129.553 199.643 117.638 184.142 105.948 168.934 94.5198 154.042 83.2784 139.478 72.332 125.146 61.5009 111.102 50.9624 97.3454 40.6021
0.062  233.555 143.177 217.414 130.931 201.506 118.994 185.937 107.322 170.715 95.8058 155.769 84.5497 141.084 73.5866 126.77 62.7896 112.716 52.1638 98.9058 41.7845
0.063  235.581 144.638 219.294 132.431 203.384 120.354 187.788 108.651 172.473 97.159 157.524 85.8992 142.851 74.8425 128.427 64.0056 114.346 53.4338 100.529 42.9755
0.064  237.558 146.081 221.258 133.848 205.259 121.835 189.648 110.053 174.311 98.4654 159.305 87.2506 144.603 76.1577 130.19 65.2598 116.02 54.6363 102.135 44.2213
0.065  239.618 147.615 223.241 135.305 207.236 123.299 191.554 111.441 176.244 99.8806 161.129 88.5648 146.36 77.4733 131.944 66.5688 117.765 55.916 103.847 45.4722
0.066  241.683 149.146 225.296 136.838 209.206 124.752 193.472 112.886 178.078 101.337 162.938 89.9228 148.203 78.8133 133.694 67.9003 119.495 57.1835 105.523 46.699
0.067  243.78 150.73 227.346 138.348 211.265 126.253 195.499 114.401 180.043 102.75 164.907 91.3404 150.099 80.228 135.518 69.2392 121.274 58.5514 107.281 47.9755
0.068  245.95 152.342 229.438 139.937 213.292 127.773 197.5 115.9 182.037 104.251 166.853 92.8013 151.952 81.5856 137.345 70.6485 123.071 59.8093 109.06 49.3053
0.069  248.136 154.009 231.644 141.547 215.451 129.367 199.554 117.411 184.063 105.727 168.82 94.2531 153.879 82.9799 139.194 72.0247 124.9 61.1887 110.866 50.6751
0.07  250.407 155.65 233.808 143.141 217.618 130.892 201.666 118.962 186.096 107.227 170.82 95.7216 155.807 84.4409 141.163 73.4581 126.775 62.6173 112.71 52.0753
0.071  252.664 157.344 236.049 144.799 219.78 132.584 203.789 120.505 188.188 108.768 172.823 97.246 157.829 85.9096 143.145 74.894 128.717 64.0337 114.538 53.4067
0.072  254.997 159.109 238.324 146.549 221.938 134.229 205.943 122.12 190.263 110.353 174.91 98.7909 159.907 87.4478 145.086 76.2967 130.668 65.4907 116.43 54.7878
0.073  257.427 160.843 240.655 148.233 224.286 135.922 208.162 123.774 192.432 111.971 177.048 100.417 161.991 89.1258 147.137 77.9203 132.597 66.9158 118.427 56.2701
0.074  259.8 162.713 243.01 150.036 226.567 137.623 210.371 125.46 194.664 113.655 179.181 102.094 164.104 90.736 149.252 79.5436 134.681 68.5017 120.373 57.7466
0.075  262.247 164.443 245.426 151.774 228.894 139.354 212.757 127.21 196.934 115.382 181.421 103.743 166.3 92.5279 151.377 81.1295 136.719 70.0143 122.425 59.2663
0.076  264.783 166.35 247.838 153.571 231.26 141.129 215.026 128.983 199.231 117.098 183.701 105.457 168.48 94.1159 153.509 82.7453 138.861 71.6614 124.433 60.8201
0.077  267.325 168.27 250.276 155.478 233.736 142.976 217.44 130.763 201.552 118.902 185.944 107.206 170.725 95.824 155.718 84.3575 140.985 73.2872 126.537 62.4043
0.078  270.031 170.036 252.916 157.277 236.158 144.803 219.837 132.543 203.964 120.643 188.254 108.887 172.996 97.5028 157.907 86.0839 143.139 74.914 128.674 64.0295
0.079  272.846 171.605 255.597 159.071 238.741 146.617 222.348 134.39 206.36 122.416 190.689 110.855 175.446 99.501 160.41 88.3409 145.449 76.8453 130.942 65.7894
0.08  275.793 173.156 258.386 160.787 241.353 148.408 224.92 136.274 208.832 124.321 193.13 112.761 177.855 101.514 162.862 90.3853 147.839 78.8292 133.173 67.6547
0.081  278.778 174.779 261.177 162.416 244.163 150.182 227.578 138.098 211.487 126.229 195.699 114.708 180.328 103.478 165.279 92.443 150.257 80.7778 135.524 69.5709
0.082  281.808 176.332 264.124 164.161 246.912 151.983 230.245 139.968 213.98 128.168 198.178 116.571 182.845 105.485 167.753 94.4125 152.619 82.7468 137.958 71.5219
0.083  284.915 177.872 267.037 165.848 249.789 153.774 232.971 141.813 216.667 130.059 200.806 118.636 185.327 107.505 170.214 96.3812 155.119 84.6722 140.328 73.4656
0.084  288.117 179.49 269.992 167.524 252.645 155.619 235.772 143.701 219.383 131.996 203.45 120.57 187.936 109.402 172.74 98.4021 157.59 86.7004 142.788 75.4756
0.085  291.27 181.055 273.121 169.247 255.54 157.388 238.584 145.541 222.078 133.926 206.098 122.551 190.547 111.439 175.303 100.425 160.102 88.6854 145.199 77.3854
0.086  294.546 182.448 276.261 170.814 258.58 159.106 241.473 147.384 224.894 135.794 208.83 124.491 193.206 113.424 177.895 102.403 162.59 90.6891 147.672 79.3492
0.087  297.87 183.981 279.429 172.447 261.618 160.83 244.373 149.204 227.757 137.768 211.55 126.458 195.79 115.361 180.519 104.338 165.191 92.6442 150.19 81.3565
0.088  301.232 185.436 282.666 174.112 264.741 162.625 247.339 151.081 230.587 139.611 214.322 128.321 198.594 117.325 183.124 106.366 167.723 94.6825 152.781 83.2868
0.089  304.637 186.871 285.877 175.671 267.8 164.286 250.355 152.876 233.485 141.477 217.138 130.291 201.335 119.248 185.816 108.293 170.391 96.6376 155.323 85.2581
0.09  308.013 188.325 289.163 177.319 270.963 166.024 253.425 154.694 236.415 143.369 219.982 132.211 204.056 121.268 188.509 110.263 173.028 98.5847 157.924 87.2222
0.091  311.448 189.639 292.452 178.802 274.151 167.665 256.554 156.46 239.451 145.243 222.904 134.131 206.855 123.234 191.234 112.23 175.721 100.546 160.557 89.1683
0.092  314.937 190.963 295.819 180.342 277.348 169.354 259.624 158.226 242.44 147.151 225.82 136.056 209.755 125.133 194.053 114.181 178.457 102.515 163.193 91.1318
0.093  318.391 192.326 299.149 181.818 280.651 171.018 262.778 159.961 245.486 148.94 228.761 138.006 212.556 127.102 196.816 116.088 181.088 104.493 165.889 93.0896
0.094  321.875 193.739 302.527 183.299 283.898 172.659 265.92 161.76 248.578 150.821 231.723 139.862 215.518 129.017 199.66 118.12 183.877 106.429 168.539 94.9884
0.095  325.304 194.964 305.879 184.767 287.179 174.244 269.087 163.501 251.684 152.607 234.785 141.775 218.463 130.897 202.537 120.002 186.705 108.321 171.301 96.9197
0.096  328.778 196.282 309.304 186.256 290.492 175.831 272.288 165.157 254.81 154.395 237.772 143.667 221.345 132.817 205.414 121.9 189.513 110.298 174.034 98.8179
0.097  332.233 197.677 312.663 187.669 293.795 177.406 275.559 166.856 257.921 156.216 240.902 145.467 224.351 134.737 208.312 123.85 192.367 112.208 176.859 100.709
0.098  335.713 199.03 316.037 189.21 297.114 179.003 278.78 168.597 261.089 157.982 243.971 147.305 227.355 136.617 211.21 125.68 195.258 114.033 179.649 102.56
0.099  339.071 200.427 319.405 190.682 300.389 180.54 282.033 170.237 264.214 159.677 247.039 149.115 230.411 138.43 214.135 127.605 198.092 115.937 182.445 104.423
0.1  342.4 201.751 322.723 192.162 303.695 182.171 285.311 171.902 267.377 161.475 250.165 150.864 233.431 140.283 217.152 129.442 200.989 117.811 185.343 106.227
0.101  345.767 203.201 326.061 193.664 306.963 183.756 288.472 173.593 270.575 163.186 253.257 152.646 236.451 142.071 220.125 131.28 203.965 119.691 188.177 108.091
0.102  349.071 204.717 329.411 195.244 310.243 185.301 291.683 175.205 273.822 164.883 256.421 154.466 239.528 143.932 223.104 133.107 206.872 121.471 191.07 109.868
0.103  352.356 206.226 332.648 196.696 313.516 186.908 294.947 176.895 276.964 166.659 259.503 156.218 242.542 145.705 226.137 134.864 209.77 123.311 193.932 111.651
0.104  355.633 207.817 335.933 198.338 316.786 188.563 298.165 178.547 280.172 168.343 262.641 157.955 245.659 147.447 229.084 136.689 212.783 125.084 196.814 113.372
0.105  358.793 209.404 339.191 199.941 320.019 190.221 301.355 180.201 283.321 170.021 265.755 159.696 248.727 149.214 232.147 138.471 215.74 126.815 199.744 115.148
0.106  361.999 211.002 342.335 201.579 323.244 191.81 304.59 181.871 286.511 171.759 268.903 161.436 251.83 151.02 235.158 140.186 218.705 128.547 202.669 116.914
0.107  365.188 212.716 345.541 203.221 326.451 193.474 307.8 183.587 289.659 173.415 271.99 163.171 254.901 152.695 238.159 141.932 221.623 130.265 205.558 118.555
0.108  368.259 214.515 348.682 204.881 329.546 195.139 310.976 185.258 292.788 175.133 275.144 164.879 257.94 154.447 241.217 143.655 224.662 132.043 208.448 120.303
0.109  371.261 216.24 351.688 206.639 332.676 196.852 314.094 186.916 295.893 176.766 278.17 166.54 260.989 156.167 244.267 145.375 227.676 133.737 211.573 122.059
0.11  374.259 218.052 354.814 208.356 335.754 198.561 317.136 188.559 298.986 178.453 281.289 168.231 264.138 157.821 247.348 147.132 230.664 135.549 214.62 123.946
0.111  377.148 219.945 357.752 210.138 338.748 200.269 320.219 190.348 302.016 180.168 284.318 169.881 267.109 159.512 250.327 148.805 233.718 137.279 217.548 125.694
0.112  379.95 221.92 360.724 211.999 341.772 202.01 323.195 192.041 305.139 181.847 287.428 171.655 270.181 161.268 253.376 150.529 236.741 139.021 220.566 127.443
0.113  382.681 223.921 363.56 213.827 344.655 203.804 326.188 193.714 308.076 183.576 290.418 173.266 273.134 162.884 256.289 152.248 239.718 140.718 223.57 129.197
0.114  385.361 226.031 366.337 215.775 347.545 205.589 329.109 195.419 311.061 185.296 293.365 174.971 276.105 164.57 259.262 153.928 242.7 142.43 226.545 130.927
0.115  387.858 228.214 368.902 217.683 350.312 207.373 331.935 197.211 313.937 186.975 296.301 176.708 279.093 166.282 262.201 155.592 245.628 144.153 229.458 132.652
0.116  390.26 230.484 371.534 219.75 352.975 209.316 334.759 198.968 316.799 188.66 299.231 178.336 281.909 167.932 265.14 157.265 248.536 145.824 232.405 134.374
0.117  392.416 232.95 373.985 221.816 355.544 211.232 337.351 200.781 319.595 190.314 302.006 180 284.804 169.545 268.01 158.95 251.402 147.518 235.296 136.105
0.118  394.501 235.614 376.289 224.114 358.123 213.169 340.041 202.542 322.199 192.15 304.719 181.668 287.571 171.235 270.807 160.587 254.236 149.201 238.091 137.849
0.119  396.278 238.439 378.419 226.455 360.449 215.222 342.484 204.492 324.858 193.848 307.351 183.365 290.31 172.881 273.589 162.208 257.04 150.819 240.923 139.532
0.12  398.028 241.48 380.408 229.019 362.615 217.39 344.95 206.344 327.349 195.624 309.983 184.992 292.958 174.464 276.27 163.866 259.746 152.482 243.575 141.187
