# Gnuplot File : positions of 10 particle(s) Monitored
# 1st Column : time, others : particle(s) number 0 1 2 3 4 5 6 7 8 9 
# nParticles : 10
0.001  483.795 56.5595 487.011 51.3431 490.151 46.3088 493.129 41.44 496.025 36.72 498.854 32.1524 501.595 27.7207 504.244 23.4464 506.825 19.2534 509.32 15.207
0.002  482.666 57.4269 485.038 52.8637 489.271 46.9815 492.763 41.7624 495.908 36.8586 498.747 32.2321 501.564 27.8054 504.195 23.4889 506.753 19.3229 509.251 15.259
0.003  481.433 58.4088 483.68 53.8773 488.398 47.6771 492.221 42.1588 495.612 37.1176 498.599 32.4157 501.45 27.8802 504.139 23.5472 506.721 19.3739 509.216 15.321
0.004  480.223 59.3127 482.58 54.7199 487.532 48.3471 491.658 42.6117 495.244 37.4248 498.384 32.5789 501.294 28.021 504.045 23.6684 506.667 19.4382 509.178 15.402
0.005  479.136 60.1523 481.601 55.4889 486.67 48.9714 491.027 43.1295 494.765 37.7739 498.116 32.8485 501.126 28.1849 503.931 23.7523 506.564 19.5049 509.116 15.4739
0.006  478.149 60.9009 480.663 56.192 485.917 49.5564 490.391 43.6062 494.324 38.164 497.78 33.1113 500.887 28.4057 503.795 23.9208 506.466 19.6784 509.011 15.5817
0.007  477.205 61.624 479.828 56.8704 485.158 50.2004 489.815 44.1087 493.85 38.5509 497.437 33.408 500.652 28.5742 503.557 24.0997 506.303 19.7971 508.87 15.687
0.008  476.348 62.271 479.007 57.4662 484.451 50.7669 489.214 44.5925 493.347 38.9474 497.034 33.7004 500.35 28.8892 503.375 24.2833 506.136 19.9677 508.739 15.8602
0.009  475.514 62.9441 478.244 58.0708 483.751 51.3164 488.596 45.0608 492.865 39.3451 496.658 34.0841 500.043 29.1189 503.134 24.514 505.935 20.1263 508.538 16.0072
0.01  474.736 63.5394 477.515 58.6791 483.077 51.8355 487.987 45.5576 492.373 39.7411 496.22 34.422 499.719 29.3706 502.83 24.7448 505.721 20.3419 508.361 16.1733
0.011  473.969 64.1432 476.832 59.2176 482.402 52.3539 487.412 46.0256 491.833 40.1746 495.785 34.7476 499.361 29.7106 502.558 25.0117 505.468 20.547 508.107 16.3889
0.012  473.274 64.7063 476.171 59.7372 481.804 52.8568 486.842 46.5056 491.328 40.5963 495.364 35.0837 498.969 30.0274 502.232 25.2608 505.195 20.7866 507.902 16.6227
0.013  472.59 65.2467 475.54 60.2608 481.188 53.3402 486.277 46.9357 490.844 40.9906 494.898 35.4839 498.569 30.3474 501.92 25.5622 504.887 21.0613 507.626 16.8569
0.014  471.957 65.7578 474.903 60.7336 480.579 53.8251 485.701 47.3957 490.336 41.4349 494.492 35.8588 498.209 30.6653 501.539 25.8461 504.584 21.3372 507.313 17.1127
0.015  471.325 66.2715 474.313 61.2163 479.991 54.2856 485.177 47.8535 489.832 41.8133 494.02 36.2334 497.792 31.0264 501.174 26.1658 504.249 21.6326 506.987 17.3649
0.016  470.694 66.7877 473.709 61.7082 479.422 54.8129 484.629 48.2983 489.315 42.2284 493.572 36.6211 497.402 31.3725 500.799 26.5145 503.884 21.9446 506.642 17.672
0.017  470.07 67.248 473.155 62.1514 478.881 55.2285 484.105 48.7758 488.819 42.6739 493.114 37.0053 496.952 31.7222 500.414 26.8121 503.568 22.2328 506.3 17.9674
0.018  469.501 67.7205 472.575 62.6352 478.297 55.6722 483.547 49.1722 488.331 43.069 492.632 37.4256 496.511 32.0973 500.016 27.1966 503.152 22.5681 505.904 18.2776
0.019  468.955 68.1632 472.067 63.0888 477.767 56.1393 483.002 49.6296 487.794 43.513 492.153 37.7893 496.089 32.4819 499.604 27.5253 502.736 22.9008 505.526 18.6132
0.02  468.371 68.6591 471.533 63.5029 477.248 56.5734 482.508 50.0491 487.322 43.8912 491.652 38.2133 495.655 32.8437 499.173 27.8803 502.349 23.2474 505.145 18.975
0.021  467.842 69.1321 470.989 63.9569 476.692 56.9948 481.98 50.4632 486.823 44.3257 491.224 38.5885 495.186 33.2331 498.758 28.2619 501.924 23.586 504.741 19.2819
0.022  467.273 69.5625 470.435 64.4182 476.209 57.4825 481.453 50.894 486.331 44.7324 490.738 39.023 494.715 33.6411 498.32 28.6433 501.527 23.9524 504.366 19.6686
0.023  466.753 69.9869 469.95 64.8265 475.678 57.8737 480.951 51.3167 485.816 45.1981 490.236 39.404 494.246 34.0245 497.833 29.0323 501.041 24.3237 503.923 20.0215
0.024  466.239 70.4553 469.432 65.262 475.16 58.3139 480.441 51.7525 485.329 45.6026 489.736 39.8192 493.801 34.4301 497.38 29.3893 500.629 24.709 503.476 20.3881
0.025  465.698 70.8946 468.943 65.6839 474.652 58.7809 479.947 52.2053 484.824 46.0259 489.265 40.2118 493.325 34.837 496.926 29.8222 500.165 25.1036 503.055 20.7368
0.026  465.194 71.3367 468.409 66.1151 474.143 59.1761 479.451 52.6334 484.28 46.458 488.802 40.6681 492.792 35.2358 496.493 30.1965 499.737 25.4915 502.598 21.1351
0.027  464.693 71.7944 467.941 66.5456 473.637 59.5984 478.915 53.0321 483.805 46.8597 488.278 41.0761 492.334 35.6608 495.983 30.593 499.264 25.8903 502.148 21.5342
0.028  464.183 72.173 467.458 66.9589 473.116 60.0253 478.425 53.478 483.323 47.2651 487.782 41.4672 491.867 36.0557 495.496 30.9955 498.779 26.2871 501.699 21.923
0.029  463.685 72.6084 466.964 67.3564 472.613 60.4709 477.93 53.8846 482.797 47.7548 487.266 41.9029 491.388 36.4749 495.017 31.3803 498.308 26.6977 501.199 22.361
0.03  463.236 73.0424 466.52 67.7684 472.166 60.8739 477.429 54.3118 482.315 48.1604 486.793 42.3314 490.873 36.8851 494.528 31.82 497.822 27.1253 500.728 22.7534
0.031  463.239 73.1836 466.234 68.1104 471.78 61.2696 476.972 54.7432 481.81 48.5966 486.3 42.7674 490.348 37.3165 494.053 32.2332 497.361 27.5145 500.246 23.1585
0.032  463.335 73.3202 466.039 68.3145 471.44 61.5757 476.579 55.1151 481.367 48.9895 485.802 43.2182 489.883 37.7357 493.582 32.6517 496.878 27.9399 499.786 23.5574
0.033  463.347 73.4976 465.926 68.5699 471.149 61.9009 476.176 55.4826 480.916 49.378 485.331 43.6124 489.399 38.192 493.072 33.0997 496.404 28.3627 499.251 23.9825
0.034  463.365 73.655 465.842 68.7996 470.933 62.1568 475.842 55.809 480.501 49.741 484.899 44.0242 488.929 38.5705 492.586 33.5158 495.883 28.7779 498.811 24.3804
0.035  463.383 73.7683 465.759 68.9775 470.687 62.475 475.503 56.1794 480.134 50.1387 484.457 44.3812 488.491 39.0049 492.112 33.9526 495.452 29.1926 498.344 24.7667
0.036  463.403 73.887 465.689 69.1934 470.512 62.7205 475.228 56.4665 479.774 50.4897 484.043 44.7711 488.029 39.3591 491.656 34.3081 494.929 29.6054 497.876 25.1948
0.037  463.427 74.018 465.583 69.3695 470.335 62.9635 474.968 56.8053 479.44 50.7979 483.675 45.1328 487.588 39.7733 491.183 34.7071 494.486 30.0276 497.426 25.6057
0.038  463.454 74.1193 465.573 69.5493 470.162 63.2302 474.704 57.0423 479.107 51.1736 483.294 45.4969 487.171 40.1748 490.732 35.15 494.006 30.4107 496.932 26.042
0.039  463.477 74.2626 465.499 69.6975 470.022 63.462 474.463 57.3483 478.831 51.4673 482.928 45.8638 486.789 40.5478 490.35 35.5131 493.583 30.8048 496.509 26.3923
0.04  463.519 74.4005 465.426 69.856 469.924 63.6494 474.257 57.6504 478.52 51.7901 482.556 46.2013 486.358 40.9026 489.906 35.8795 493.138 31.2188 496.008 26.8434
0.041  463.557 74.5172 465.398 70.03 469.758 63.8693 474.056 57.8687 478.241 52.0861 482.234 46.548 485.976 41.2616 489.516 36.2757 492.699 31.5761 495.626 27.2104
0.042  463.577 74.6358 465.373 70.1642 469.626 64.0837 473.844 58.136 477.95 52.3964 481.935 46.8917 485.617 41.6341 489.094 36.6651 492.288 31.9778 495.181 27.6303
0.043  463.582 74.7736 465.324 70.3097 469.514 64.2817 473.683 58.3788 477.696 52.6822 481.589 47.2135 485.248 41.985 488.719 37.0287 491.923 32.342 494.765 28.0028
0.044  463.634 74.8496 465.292 70.4733 469.393 64.4616 473.47 58.637 477.459 52.9676 481.298 47.5256 484.93 42.3159 488.302 37.3589 491.476 32.738 494.381 28.3551
0.045  463.634 74.9579 465.261 70.6581 469.293 64.6753 473.313 58.8641 477.215 53.2353 480.998 47.844 484.571 42.651 487.959 37.7465 491.112 33.1351 494.001 28.6861
0.046  463.663 75.0833 465.221 70.746 469.177 64.8589 473.119 59.1158 476.99 53.5198 480.712 48.1401 484.289 43.0135 487.586 38.0739 490.753 33.4421 493.616 29.0718
0.047  463.709 75.1385 465.171 70.9341 469.074 65.0328 472.959 59.3505 476.763 53.7728 480.416 48.4233 483.951 43.3159 487.256 38.4448 490.379 33.7899 493.26 29.4143
0.048  463.719 75.2928 465.155 71.0425 468.971 65.2363 472.798 59.5575 476.537 54.0524 480.155 48.7485 483.668 43.6178 486.929 38.7669 490.046 34.123 492.901 29.7726
0.049  463.705 75.3927 465.121 71.1892 468.877 65.3971 472.615 59.7731 476.345 54.2932 479.922 48.9863 483.352 43.9543 486.615 39.0511 489.652 34.46 492.535 30.0771
0.05  463.699 75.4734 465.115 71.2876 468.823 65.6088 472.508 59.9923 476.132 54.5416 479.678 49.2642 483.079 44.2449 486.333 39.4032 489.352 34.7957 492.22 30.442
0.051  463.737 75.6444 465.065 71.4131 468.729 65.7604 472.333 60.1897 475.932 54.7763 479.421 49.554 482.818 44.5398 485.994 39.7046 489.033 35.1239 491.898 30.7823
0.052  463.718 75.7053 465.034 71.6033 468.61 65.9282 472.208 60.4132 475.729 55.0506 479.178 49.8428 482.501 44.8264 485.702 40.0083 488.723 35.4506 491.555 31.0917
0.053  463.724 75.8063 465.02 71.7276 468.515 66.1213 472.07 60.6285 475.555 55.2598 478.997 50.1366 482.276 45.1028 485.419 40.3466 488.404 35.7417 491.243 31.4012
0.054  463.743 75.9059 464.954 71.8252 468.475 66.2816 471.942 60.8194 475.35 55.532 478.717 50.3584 481.994 45.407 485.17 40.5958 488.129 36.066 490.959 31.7044
0.055  463.752 76.0577 464.941 71.9885 468.359 66.463 471.795 61.0535 475.223 55.7646 478.541 50.5896 481.758 45.6789 484.867 40.8931 487.867 36.3753 490.675 32.0311
0.056  463.782 76.1516 464.951 72.1165 468.286 66.5975 471.662 61.2371 475.011 55.9597 478.337 50.8516 481.529 45.9341 484.627 41.2047 487.568 36.6617 490.415 32.3108
0.057  463.779 76.2657 464.918 72.2498 468.242 66.7804 471.565 61.3971 474.884 56.1923 478.129 51.1301 481.328 46.2093 484.362 41.5097 487.331 36.9165 490.133 32.604
0.058  463.785 76.3931 464.902 72.3855 468.136 66.9675 471.437 61.6391 474.704 56.4402 477.927 51.3597 481.08 46.4866 484.146 41.7744 487.058 37.2134 489.889 32.9018
0.059  463.804 76.4617 464.869 72.4998 468.102 67.1064 471.343 61.8135 474.568 56.6324 477.739 51.5948 480.873 46.7585 483.898 42.0549 486.792 37.5134 489.624 33.1653
0.06  463.797 76.6166 464.909 72.6031 468.004 67.2604 471.19 62.008 474.412 56.8298 477.602 51.8632 480.659 46.9892 483.678 42.3125 486.581 37.7816 489.377 33.4541
0.061  463.837 76.6938 464.833 72.7687 467.955 67.4148 471.095 62.1806 474.252 57.075 477.409 52.0573 480.454 47.234 483.459 42.5604 486.325 38.0401 489.151 33.7055
0.062  463.841 76.7962 464.828 72.8688 467.896 67.5766 471.018 62.3719 474.121 57.2646 477.224 52.32 480.275 47.4963 483.221 42.8474 486.103 38.3308 488.923 33.9785
0.063  463.848 76.9256 464.832 73.0071 467.851 67.7236 470.938 62.522 473.983 57.4446 477.08 52.529 480.091 47.7265 483.037 43.0613 485.889 38.5997 488.678 34.2405
0.064  463.88 76.9858 464.812 73.1354 467.806 67.9099 470.839 62.7031 473.85 57.6643 476.921 52.7223 479.887 47.9453 482.813 43.3135 485.681 38.8475 488.491 34.4861
0.065  463.877 77.1187 464.801 73.2211 467.753 68.014 470.764 62.8983 473.782 57.8727 476.753 52.9856 479.726 48.2024 482.64 43.5622 485.501 39.0763 488.315 34.749
0.066  463.948 77.2078 464.84 73.3436 467.709 68.1565 470.679 63.0553 473.677 58.0558 476.595 53.1741 479.58 48.437 482.469 43.8329 485.3 39.3355 488.089 34.9994
0.067  463.956 77.2919 464.818 73.4837 467.719 68.2996 470.605 63.2491 473.579 58.2139 476.471 53.4008 479.391 48.6187 482.298 44.0516 485.122 39.5812 487.887 35.2501
0.068  463.979 77.3921 464.819 73.5899 467.639 68.4346 470.507 63.3743 473.424 58.4449 476.362 53.5792 479.257 48.8477 482.122 44.2644 484.95 39.8338 487.72 35.4433
0.069  463.971 77.4563 464.828 73.6942 467.646 68.5536 470.454 63.5514 473.329 58.5978 476.233 53.7827 479.11 49.0718 481.927 44.4836 484.762 40.037 487.524 35.6794
0.07  464.04 77.5853 464.817 73.7724 467.56 68.7124 470.392 63.7044 473.255 58.8169 476.087 53.9713 478.952 49.3059 481.814 44.7245 484.584 40.2643 487.382 35.9375
0.071  464.022 77.6916 464.818 73.8914 467.54 68.8341 470.339 63.8653 473.18 58.964 475.982 54.1738 478.811 49.4812 481.649 44.9352 484.436 40.4748 487.209 36.1411
0.072  464.061 77.7738 464.854 74.0051 467.546 68.9714 470.281 64.049 473.073 59.1537 475.893 54.3945 478.704 49.7016 481.511 45.1192 484.275 40.7105 487.035 36.393
0.073  464.08 77.8654 464.847 74.091 467.487 69.1185 470.206 64.155 472.985 59.3364 475.75 54.5473 478.555 49.9088 481.354 45.3529 484.138 40.9061 486.885 36.5852
0.074  464.118 77.9257 464.885 74.2275 467.463 69.2355 470.182 64.2989 472.863 59.4802 475.66 54.739 478.434 50.0955 481.219 45.5586 484.006 41.1295 486.731 36.822
0.075  464.143 78.0478 464.86 74.3154 467.427 69.3357 470.106 64.4666 472.81 59.6349 475.558 54.9063 478.327 50.291 481.112 45.7669 483.874 41.3249 486.629 37.0151
0.076  464.153 78.1055 464.826 74.4078 467.437 69.4905 470.063 64.6172 472.754 59.8336 475.476 55.0775 478.219 50.4681 480.966 45.975 483.741 41.5135 486.482 37.2413
0.077  464.18 78.2196 464.862 74.5354 467.394 69.5914 470.037 64.7328 472.636 59.9507 475.421 55.2727 478.136 50.6741 480.863 46.1567 483.609 41.7356 486.346 37.446
0.078  464.177 78.2946 464.872 74.5944 467.404 69.7102 469.992 64.902 472.625 60.1131 475.287 55.442 478.006 50.8526 480.734 46.3312 483.474 41.9523 486.22 37.6046
0.079  464.191 78.3571 464.902 74.6986 467.376 69.8289 469.922 65.0214 472.56 60.2796 475.206 55.6201 477.922 51.0153 480.659 46.5383 483.38 42.1001 486.118 37.8117
0.08  464.208 78.4471 464.902 74.7794 467.323 69.9583 469.911 65.123 472.518 60.4335 475.147 55.7632 477.821 51.2374 480.538 46.7174 483.249 42.3296 486.005 38.0019
0.081  464.24 78.5305 464.899 74.85 467.361 70.0587 469.886 65.2967 472.44 60.6035 475.09 55.9583 477.759 51.3961 480.394 46.9175 483.15 42.5058 485.886 38.165
0.082  464.234 78.6259 464.938 74.9836 467.342 70.1892 469.87 65.4091 472.427 60.7379 474.998 56.1078 477.645 51.5529 480.326 47.0533 483.061 42.6796 485.805 38.3766
0.083  464.278 78.7048 464.923 75.0661 467.315 70.3087 469.814 65.5376 472.352 60.8918 474.946 56.2391 477.595 51.7249 480.257 47.2622 482.966 42.8435 485.717 38.5399
0.084  464.257 78.8391 464.906 75.1928 467.306 70.3927 469.779 65.6762 472.26 61.0281 474.871 56.4265 477.511 51.8817 480.188 47.4359 482.871 43.0207 485.588 38.7134
0.085  464.241 78.9511 464.912 75.289 467.293 70.5046 469.742 65.7851 472.27 61.1533 474.787 56.5857 477.424 52.0604 480.097 47.5991 482.801 43.2154 485.497 38.8728
0.086  464.279 78.9966 464.931 75.3371 467.302 70.6055 469.711 65.9625 472.215 61.2907 474.76 56.7129 477.385 52.2009 480.033 47.7779 482.721 43.3911 485.432 39.0435
0.087  464.271 79.0871 464.941 75.4664 467.245 70.7294 469.691 66.0792 472.143 61.4127 474.698 56.8639 477.309 52.3746 479.943 47.9263 482.621 43.5244 485.356 39.241
0.088  464.285 79.172 464.946 75.552 467.239 70.8223 469.666 66.1594 472.138 61.6019 474.666 57.0184 477.205 52.5238 479.858 48.0907 482.547 43.7151 485.266 39.402
0.089  464.324 79.2778 464.956 75.6652 467.258 70.966 469.639 66.3361 472.11 61.709 474.598 57.1771 477.177 52.6702 479.76 48.255 482.46 43.8725 485.204 39.5306
0.09  464.279 79.348 464.948 75.7219 467.231 71.0917 469.631 66.4139 472.02 61.8827 474.565 57.297 477.124 52.7906 479.75 48.3997 482.407 44.0272 485.134 39.7144
0.091  464.3 79.4789 464.978 75.8469 467.235 71.2012 469.592 66.5644 472.026 62.0021 474.476 57.4704 477.064 52.9626 479.687 48.5744 482.35 44.1979 485.078 39.8642
0.092  464.298 79.5478 464.978 75.926 467.229 71.2766 469.578 66.6779 471.981 62.1124 474.481 57.5692 477.028 53.1176 479.648 48.6806 482.292 44.318 485.005 40.0014
0.093  464.32 79.6589 464.998 76.0127 467.223 71.4015 469.561 66.7825 471.933 62.2213 474.443 57.7225 476.971 53.2644 479.566 48.8705 482.238 44.4836 484.945 40.1748
0.094  464.353 79.7233 464.981 76.1426 467.213 71.5092 469.514 66.9088 471.917 62.3439 474.371 57.8837 476.918 53.4077 479.531 49.0191 482.193 44.6227 484.872 40.2915
0.095  464.351 79.8347 465.056 76.226 467.238 71.5929 469.52 67.0267 471.904 62.4945 474.347 57.9794 476.912 53.5331 479.478 49.1331 482.132 44.7926 484.813 40.4508
0.096  464.365 79.9178 465.017 76.3022 467.176 71.7023 469.531 67.1429 471.886 62.6069 474.332 58.1431 476.832 53.6879 479.429 49.2893 482.076 44.9205 484.812 40.6039
0.097  464.377 80.0119 465.035 76.4028 467.216 71.8327 469.477 67.265 471.836 62.7591 474.303 58.2555 476.803 53.8224 479.389 49.427 482.057 45.069 484.745 40.7487
0.098  464.373 80.1023 465.031 76.5219 467.241 71.9013 469.492 67.3699 471.82 62.8985 474.287 58.3921 476.793 53.9608 479.37 49.5531 481.997 45.1922 484.739 40.866
0.099  464.381 80.217 465.049 76.6034 467.23 72.0336 469.462 67.4875 471.845 62.9703 474.267 58.5125 476.754 54.1071 479.341 49.6928 481.945 45.3331 484.659 40.9818
0.1  464.378 80.2981 465.089 76.6854 467.249 72.1548 469.465 67.5882 471.846 63.0967 474.243 58.6633 476.745 54.204 479.256 49.8319 481.93 45.4768 484.631 41.1608
0.101  464.373 80.4172 465.093 76.7745 467.217 72.2321 469.479 67.7196 471.799 63.2282 474.208 58.7754 476.685 54.3156 479.272 49.9568 481.918 45.5967 484.604 41.2745
0.102  464.405 80.5205 465.107 76.8857 467.256 72.3291 469.463 67.8183 471.794 63.3205 474.216 58.8938 476.641 54.487 479.239 50.0749 481.874 45.7362 484.574 41.411
0.103  464.373 80.6154 465.132 76.9255 467.297 72.3933 469.477 67.9052 471.79 63.4661 474.192 58.9981 476.647 54.608 479.223 50.2127 481.849 45.8327 484.545 41.5259
0.104  464.411 80.7202 465.148 77.0273 467.266 72.4753 469.455 68.0339 471.774 63.5688 474.189 59.1204 476.642 54.709 479.213 50.3318 481.806 46.0085 484.523 41.6461
0.105  464.445 80.7449 465.201 77.0771 467.301 72.5985 469.496 68.1523 471.763 63.6707 474.16 59.2378 476.617 54.8556 479.168 50.4871 481.8 46.1019 484.495 41.7806
0.106  464.486 80.7965 465.227 77.147 467.287 72.6816 469.49 68.2511 471.782 63.7753 474.152 59.385 476.61 54.9565 479.124 50.6209 481.767 46.2152 484.465 41.8939
0.107  464.495 80.8652 465.258 77.2392 467.352 72.7699 469.505 68.3125 471.771 63.9119 474.135 59.4614 476.561 55.0786 479.137 50.7132 481.769 46.3395 484.451 42.0143
0.108  464.484 81.0056 465.265 77.2939 467.363 72.8135 469.494 68.4245 471.787 63.9963 474.133 59.5707 476.585 55.1892 479.116 50.8106 481.738 46.4904 484.475 42.1605
0.109  464.525 81.0698 465.306 77.4042 467.387 72.942 469.526 68.5153 471.793 64.0767 474.156 59.6648 476.586 55.3101 479.132 50.9113 481.723 46.578 484.435 42.2549
0.11  464.493 81.189 465.309 77.5166 467.397 73.067 469.542 68.5995 471.827 64.1823 474.132 59.7732 476.59 55.4156 479.108 51.0575 481.721 46.6901 484.442 42.3531
0.111  464.508 81.2847 465.309 77.5967 467.369 73.155 469.559 68.7093 471.805 64.3022 474.154 59.8836 476.576 55.5353 479.091 51.1557 481.708 46.8637 484.395 42.4886
0.112  464.489 81.4028 465.362 77.6457 467.395 73.2266 469.532 68.7928 471.81 64.3899 474.15 60.0029 476.601 55.6251 479.126 51.2459 481.724 46.9129 484.428 42.5897
0.113  464.497 81.4801 465.351 77.749 467.409 73.319 469.552 68.9059 471.825 64.4734 474.16 60.1175 476.573 55.7384 479.103 51.415 481.697 47.0035 484.451 42.6801
0.114  464.492 81.6009 465.39 77.8381 467.452 73.4361 469.577 68.9918 471.842 64.6172 474.154 60.2229 476.556 55.8578 479.11 51.4809 481.747 47.1077 484.409 42.8084
0.115  464.531 81.6767 465.392 77.9402 467.462 73.5004 469.588 69.0731 471.83 64.6879 474.182 60.3194 476.602 55.9157 479.099 51.5914 481.691 47.2707 484.403 42.8927
0.116  464.49 81.8035 465.443 78.0025 467.473 73.6058 469.604 69.1838 471.848 64.7774 474.161 60.4204 476.567 56.0742 479.106 51.7133 481.73 47.3495 484.404 42.9955
0.117  464.523 81.9109 465.426 78.1211 467.478 73.6917 469.62 69.2703 471.832 64.864 474.18 60.5206 476.606 56.132 479.097 51.8022 481.711 47.4517 484.434 43.0973
0.118  464.504 81.9909 465.458 78.168 467.516 73.7616 469.622 69.3584 471.872 64.9745 474.189 60.5971 476.617 56.2397 479.123 51.9099 481.718 47.577 484.414 43.191
0.119  464.487 82.088 465.485 78.264 467.522 73.8538 469.654 69.4607 471.901 65.0594 474.2 60.7095 476.616 56.3504 479.127 51.9986 481.757 47.63 484.452 43.3017
0.12  464.502 82.1888 465.507 78.3313 467.52 73.9077 469.649 69.5208 471.897 65.1798 474.213 60.8087 476.615 56.4755 479.128 52.1054 481.759 47.7452 484.456 43.418
