# Gnuplot File : positions of 10 particle(s) Monitored
# 1st Column : time, others : particle(s) number 0 1 2 3 4 5 6 7 8 9 
# nParticles : 10
0.001  604.872 264.37 622.329 268.779 639.558 273.165 656.616 277.513 673.502 281.808 690.256 286.02 706.799 290.264 723.164 294.385 739.35 298.557 755.411 302.619
0.002  603.852 265.242 620.535 270.512 638.691 273.822 656.114 277.744 673.214 281.867 689.952 286.05 706.535 290.246 722.938 294.39 739.169 298.535 755.229 302.598
0.003  602.714 266.27 619.284 271.553 637.728 274.556 655.501 278.131 672.731 282.046 689.67 286.114 706.291 290.234 722.732 294.386 738.956 298.448 755.028 302.555
0.004  601.591 267.274 618.193 272.529 636.847 275.276 654.783 278.585 672.237 282.321 689.24 286.277 705.996 290.281 722.484 294.339 738.745 298.45 754.788 302.532
0.005  600.578 268.176 617.24 273.276 635.98 275.894 654.068 279.026 671.691 282.606 688.839 286.392 705.618 290.365 722.145 294.418 738.487 298.454 754.583 302.538
0.006  599.606 268.976 616.278 273.993 635.117 276.501 653.375 279.519 671.058 282.93 688.34 286.608 705.217 290.476 721.865 294.418 738.186 298.485 754.269 302.524
0.007  598.748 269.709 615.473 274.688 634.31 277.11 652.629 279.971 670.445 283.25 687.852 286.833 704.802 290.644 721.473 294.508 737.837 298.5 753.965 302.546
0.008  597.872 270.405 614.611 275.288 633.526 277.647 651.908 280.445 669.828 283.627 687.294 287.15 704.303 290.797 721.04 294.644 737.505 298.589 753.646 302.59
0.009  597.035 271.026 613.843 275.884 632.762 278.156 651.171 280.899 669.128 283.986 686.696 287.369 703.873 291.01 720.61 294.788 737.102 298.682 753.308 302.695
0.01  596.236 271.602 613.088 276.421 632.024 278.663 650.488 281.327 668.541 284.302 686.112 287.666 703.325 291.23 720.168 294.972 736.701 298.816 752.852 302.787
0.011  595.442 272.199 612.304 276.972 631.275 279.167 649.842 281.768 667.902 284.697 685.551 287.946 702.795 291.432 719.669 295.105 736.23 298.961 752.441 302.919
0.012  594.758 272.693 611.551 277.455 630.547 279.61 649.082 282.179 667.241 285.073 684.929 288.268 702.24 291.695 719.147 295.327 735.759 299.111 751.986 303.077
0.013  594.004 273.228 610.849 277.923 629.821 280.086 648.439 282.558 666.55 285.431 684.336 288.551 701.69 291.928 718.646 295.545 735.23 299.289 751.526 303.219
0.014  593.357 273.714 610.222 278.337 629.136 280.512 647.75 283.038 665.91 285.783 683.726 288.875 701.128 292.21 718.059 295.728 734.691 299.511 750.999 303.42
0.015  592.63 274.187 609.481 278.805 628.431 280.954 647.064 283.371 665.232 286.137 683.087 289.217 700.477 292.452 717.539 296.005 734.168 299.686 750.482 303.574
0.016  591.967 274.632 608.82 279.259 627.777 281.308 646.373 283.784 664.554 286.523 682.448 289.475 699.878 292.758 716.936 296.236 733.618 299.902 749.893 303.814
0.017  591.283 275.067 608.163 279.651 627.086 281.746 645.716 284.097 663.944 286.839 681.82 289.858 699.269 293.061 716.366 296.493 733.064 300.173 749.313 304.011
0.018  590.617 275.466 607.493 280.013 626.409 282.151 645.066 284.531 663.256 287.19 681.171 290.174 698.617 293.357 715.724 296.782 732.437 300.428 748.707 304.286
0.019  589.984 275.851 606.854 280.403 625.743 282.548 644.34 284.924 662.611 287.591 680.5 290.487 698.008 293.638 715.12 297.039 731.81 300.717 748.111 304.502
0.02  589.338 276.219 606.206 280.804 625.125 282.901 643.672 285.278 661.964 287.909 679.875 290.83 697.357 293.959 714.456 297.344 731.179 300.955 747.494 304.768
0.021  588.681 276.633 605.503 281.134 624.457 283.259 643.033 285.632 661.262 288.284 679.199 291.16 696.686 294.267 713.826 297.633 730.568 301.206 746.828 305.012
0.022  588.051 276.998 604.931 281.497 623.777 283.653 642.355 285.984 660.626 288.614 678.555 291.455 695.982 294.566 713.159 297.912 729.875 301.524 746.19 305.33
0.023  587.461 277.351 604.315 281.861 623.095 283.985 641.693 286.355 659.947 288.934 677.854 291.844 695.378 294.885 712.482 298.27 729.224 301.842 745.471 305.606
0.024  586.758 277.697 603.658 282.196 622.445 284.348 641.035 286.663 659.277 289.277 677.138 292.149 694.671 295.231 711.796 298.604 728.514 302.121 744.794 305.897
0.025  586.179 278.043 603.072 282.528 621.824 284.664 640.371 287.044 658.614 289.624 676.473 292.51 693.99 295.57 711.124 298.858 727.833 302.452 744.145 306.24
0.026  585.53 278.369 602.422 282.877 621.18 285.034 639.68 287.34 657.918 289.971 675.823 292.823 693.302 295.874 710.435 299.239 727.131 302.736 743.427 306.537
0.027  584.922 278.75 601.741 283.182 620.52 285.331 638.998 287.697 657.216 290.311 675.114 293.125 692.602 296.23 709.719 299.515 726.454 303.066 742.717 306.812
0.028  584.257 279.112 601.119 283.495 619.899 285.686 638.366 288.011 656.545 290.661 674.426 293.538 691.913 296.579 709.026 299.857 725.731 303.377 741.948 307.157
0.029  583.686 279.402 600.534 283.825 619.233 286.012 637.697 288.401 655.862 290.969 673.712 293.82 691.23 296.867 708.35 300.164 725.024 303.768 741.259 307.485
0.03  583.026 279.693 599.883 284.105 618.609 286.331 637.046 288.727 655.172 291.315 673.031 294.168 690.47 297.22 707.589 300.527 724.269 304.004 740.527 307.799
0.031  582.805 279.665 599.42 284.32 617.999 286.577 636.419 289.054 654.501 291.665 672.305 294.513 689.792 297.528 706.854 300.862 723.526 304.387 739.77 308.109
0.032  582.497 279.656 599.035 284.39 617.448 286.806 635.761 289.333 653.855 291.973 671.618 294.786 689.04 297.903 706.133 301.186 722.771 304.718 739.061 308.453
0.033  582.264 279.653 598.644 284.503 616.983 286.988 635.165 289.565 653.198 292.27 670.936 295.155 688.331 298.235 705.44 301.504 722.096 305.048 738.282 308.79
0.034  581.996 279.613 598.256 284.628 616.541 287.158 634.642 289.784 652.582 292.508 670.311 295.433 687.659 298.543 704.681 301.844 721.351 305.357 737.566 309.135
0.035  581.732 279.603 597.943 284.622 616.081 287.295 634.108 289.993 652.038 292.787 669.64 295.74 687.004 298.859 703.949 302.194 720.617 305.709 736.793 309.432
0.036  581.471 279.578 597.628 284.653 615.647 287.408 633.632 290.238 651.431 293.082 669.018 296.013 686.298 299.16 703.283 302.518 719.886 306.08 736.06 309.789
0.037  581.237 279.533 597.327 284.715 615.286 287.518 633.163 290.389 650.909 293.297 668.435 296.33 685.667 299.49 702.626 302.837 719.17 306.371 735.347 310.137
0.038  580.944 279.477 596.996 284.733 614.854 287.636 632.69 290.568 650.374 293.553 667.815 296.579 685.042 299.78 701.917 303.158 718.482 306.697 734.648 310.443
0.039  580.75 279.435 596.687 284.692 614.491 287.736 632.256 290.732 649.85 293.749 667.243 296.827 684.428 300.082 701.271 303.494 717.781 307.048 733.92 310.741
0.04  580.492 279.422 596.402 284.756 614.091 287.833 631.809 290.873 649.337 293.91 666.696 297.065 683.821 300.321 700.685 303.765 717.16 307.328 733.224 311.091
0.041  580.214 279.338 596.104 284.78 613.772 287.904 631.384 291.035 648.861 294.185 666.116 297.32 683.252 300.574 700.005 304.036 716.477 307.612 732.541 311.403
0.042  579.971 279.317 595.81 284.794 613.468 287.985 630.944 291.145 648.386 294.343 665.636 297.548 682.61 300.911 699.36 304.34 715.825 307.945 731.899 311.719
0.043  579.736 279.263 595.552 284.786 613.077 288.066 630.566 291.287 647.876 294.518 665.094 297.822 682.097 301.161 698.784 304.614 715.196 308.268 731.22 312.018
0.044  579.493 279.225 595.278 284.783 612.738 288.147 630.173 291.406 647.47 294.706 664.599 298.001 681.51 301.411 698.2 304.921 714.612 308.511 730.63 312.32
0.045  579.262 279.178 594.977 284.774 612.398 288.213 629.752 291.531 647.028 294.856 664.123 298.203 680.965 301.622 697.64 305.201 713.922 308.83 729.997 312.612
0.046  578.985 279.117 594.689 284.804 612.074 288.252 629.381 291.669 646.586 295.033 663.611 298.442 680.461 301.922 697.051 305.425 713.357 309.096 729.387 312.86
0.047  578.79 279.069 594.441 284.74 611.757 288.289 629.017 291.759 646.15 295.177 663.133 298.597 679.913 302.109 696.484 305.667 712.753 309.374 728.791 313.161
0.048  578.516 279.048 594.183 284.774 611.431 288.381 628.624 291.859 645.722 295.333 662.652 298.847 679.412 302.337 695.919 305.948 712.253 309.622 728.185 313.391
0.049  578.3 278.995 593.893 284.758 611.102 288.402 628.289 291.957 645.31 295.469 662.18 299 678.908 302.588 695.41 306.193 711.654 309.876 727.621 313.684
0.05  578.058 278.933 593.624 284.748 610.796 288.463 627.869 292.059 644.904 295.632 661.761 299.21 678.433 302.773 694.869 306.435 711.088 310.138 727.006 313.929
0.051  577.802 278.884 593.35 284.765 610.487 288.561 627.549 292.167 644.509 295.781 661.3 299.335 677.964 302.972 694.349 306.652 710.603 310.385 726.508 314.163
0.052  577.58 278.811 593.108 284.743 610.197 288.557 627.213 292.239 644.104 295.935 660.849 299.512 677.444 303.167 693.847 306.858 710.055 310.61 725.963 314.424
0.053  577.34 278.794 592.865 284.732 609.903 288.602 626.845 292.359 643.727 296.019 660.443 299.674 677.005 303.401 693.354 307.089 709.535 310.812 725.45 314.642
0.054  577.091 278.764 592.594 284.715 609.581 288.642 626.487 292.436 643.329 296.175 659.97 299.879 676.531 303.601 692.883 307.285 708.991 311.07 724.879 314.922
0.055  576.861 278.715 592.305 284.678 609.311 288.686 626.156 292.486 642.956 296.281 659.604 299.997 676.077 303.748 692.384 307.485 708.512 311.275 724.407 315.123
0.056  576.584 278.645 592.044 284.731 608.973 288.72 625.833 292.605 642.586 296.417 659.18 300.189 675.648 303.93 691.93 307.68 708.056 311.51 723.88 315.347
0.057  576.403 278.66 591.811 284.696 608.694 288.786 625.505 292.672 642.216 296.512 658.788 300.336 675.219 304.07 691.485 307.891 707.518 311.709 723.376 315.535
0.058  576.125 278.594 591.532 284.713 608.405 288.778 625.162 292.738 641.857 296.66 658.366 300.475 674.791 304.23 691.053 308.06 707.079 311.884 722.945 315.752
0.059  575.927 278.546 591.304 284.646 608.095 288.786 624.878 292.839 641.545 296.709 657.984 300.605 674.352 304.399 690.606 308.241 706.618 312.104 722.454 315.899
0.06  575.626 278.536 591.024 284.661 607.86 288.823 624.519 292.894 641.154 296.84 657.618 300.774 673.95 304.562 690.124 308.412 706.135 312.251 722.026 316.136
0.061  575.454 278.469 590.785 284.642 607.556 288.831 624.218 292.97 640.813 296.943 657.228 300.882 673.571 304.747 689.725 308.582 705.742 312.458 721.537 316.323
0.062  575.218 278.407 590.548 284.629 607.283 288.873 623.958 293.01 640.455 297.031 656.858 300.97 673.17 304.909 689.305 308.814 705.289 312.626 721.075 316.516
0.063  575.039 278.365 590.319 284.629 606.981 288.891 623.579 293.098 640.088 297.14 656.501 301.117 672.786 305.044 688.878 308.901 704.857 312.828 720.672 316.627
0.064  574.771 278.337 590.102 284.589 606.747 288.934 623.299 293.123 639.746 297.208 656.131 301.23 672.375 305.159 688.463 309.079 704.443 312.937 720.205 316.842
0.065  574.543 278.281 589.831 284.555 606.429 288.953 622.998 293.155 639.409 297.302 655.805 301.332 672.007 305.309 688.088 309.235 704.021 313.135 719.791 316.978
0.066  574.314 278.247 589.598 284.541 606.185 288.945 622.71 293.269 639.147 297.376 655.426 301.412 671.631 305.44 687.674 309.327 703.624 313.26 719.42 317.159
0.067  574.132 278.184 589.358 284.476 605.935 288.96 622.406 293.293 638.798 297.419 655.091 301.568 671.254 305.535 687.319 309.505 703.212 313.411 718.997 317.281
0.068  573.91 278.094 589.127 284.465 605.689 288.974 622.125 293.331 638.498 297.498 654.742 301.609 670.917 305.623 686.902 309.632 702.815 313.557 718.573 317.461
0.069  573.678 278.051 588.935 284.49 605.431 288.961 621.82 293.351 638.193 297.594 654.407 301.711 670.576 305.788 686.566 309.734 702.433 313.688 718.192 317.615
0.07  573.45 277.998 588.707 284.398 605.161 288.978 621.575 293.363 637.871 297.61 654.106 301.829 670.218 305.879 686.193 309.92 702.024 313.823 717.837 317.751
0.071  573.224 277.913 588.448 284.344 604.897 288.981 621.277 293.436 637.561 297.726 653.754 301.905 669.841 305.973 685.854 310.028 701.684 313.957 717.445 317.864
0.072  573.008 277.876 588.232 284.331 604.633 288.975 621.01 293.455 637.251 297.789 653.423 301.985 669.483 306.08 685.477 310.136 701.315 314.059 717.05 318.015
0.073  572.825 277.836 587.985 284.283 604.381 288.977 620.73 293.445 636.976 297.839 653.121 302.051 669.139 306.179 685.125 310.235 700.916 314.181 716.708 318.117
0.074  572.598 277.76 587.759 284.27 604.191 288.918 620.446 293.482 636.709 297.885 652.783 302.138 668.85 306.272 684.773 310.342 700.6 314.326 716.325 318.202
0.075  572.335 277.669 587.536 284.23 603.882 288.972 620.255 293.509 636.419 297.935 652.459 302.182 668.488 306.407 684.41 310.433 700.263 314.42 716.019 318.364
0.076  572.166 277.622 587.347 284.173 603.67 288.932 619.918 293.517 636.096 297.995 652.177 302.273 668.223 306.458 684.096 310.547 699.947 314.489 715.658 318.455
0.077  571.922 277.532 587.067 284.108 603.404 288.954 619.651 293.563 635.819 298.01 651.843 302.32 667.892 306.535 683.789 310.621 699.589 314.607 715.285 318.542
0.078  571.681 277.511 586.846 284.076 603.185 288.912 619.392 293.566 635.554 298.047 651.581 302.367 667.559 306.598 683.443 310.704 699.225 314.713 714.986 318.689
0.079  571.415 277.415 586.639 283.99 602.915 288.901 619.146 293.537 635.255 298.084 651.285 302.455 667.298 306.686 683.133 310.794 698.902 314.838 714.607 318.745
0.08  571.199 277.375 586.401 283.922 602.673 288.873 618.875 293.576 634.993 298.1 650.998 302.472 666.959 306.738 682.816 310.863 698.59 314.914 714.287 318.858
0.081  570.952 277.271 586.168 283.94 602.428 288.832 618.644 293.576 634.713 298.117 650.689 302.524 666.638 306.827 682.46 310.92 698.305 314.984 713.956 318.927
0.082  570.782 277.222 585.917 283.857 602.209 288.798 618.382 293.564 634.439 298.138 650.406 302.576 666.326 306.837 682.174 311.019 697.943 315.054 713.655 319.029
0.083  570.519 277.156 585.663 283.798 601.922 288.794 618.124 293.564 634.119 298.165 650.135 302.592 666.018 306.91 681.857 311.085 697.654 315.115 713.342 319.056
0.084  570.303 277.061 585.439 283.775 601.688 288.782 617.827 293.564 633.889 298.182 649.893 302.639 665.789 306.942 681.599 311.142 697.32 315.216 713.004 319.176
0.085  570.012 277.027 585.193 283.707 601.425 288.713 617.566 293.608 633.634 298.203 649.557 302.69 665.431 307.008 681.264 311.193 697.021 315.281 712.677 319.25
0.086  569.787 276.949 584.971 283.602 601.187 288.682 617.303 293.558 633.377 298.213 649.265 302.672 665.131 307.051 680.938 311.247 696.71 315.307 712.406 319.306
0.087  569.582 276.896 584.727 283.609 600.898 288.636 617.017 293.544 633.063 298.219 648.991 302.713 664.849 307.082 680.685 311.276 696.398 315.376 712.12 319.36
0.088  569.362 276.828 584.513 283.506 600.735 288.619 616.77 293.533 632.835 298.181 648.723 302.729 664.601 307.135 680.387 311.338 696.118 315.444 711.809 319.416
0.089  569.097 276.728 584.247 283.472 600.438 288.561 616.511 293.476 632.543 298.231 648.449 302.788 664.325 307.12 680.079 311.37 695.804 315.468 711.502 319.455
0.09  568.832 276.649 584.032 283.422 600.218 288.55 616.242 293.466 632.272 298.202 648.174 302.793 664.032 307.15 679.799 311.439 695.521 315.543 711.219 319.511
0.091  568.607 276.613 583.778 283.34 599.976 288.514 616.02 293.454 632.022 298.233 647.882 302.774 663.743 307.185 679.519 311.468 695.261 315.552 710.924 319.532
0.092  568.337 276.505 583.574 283.288 599.703 288.472 615.789 293.452 631.723 298.257 647.634 302.798 663.463 307.22 679.22 311.513 694.943 315.598 710.685 319.572
0.093  568.109 276.436 583.343 283.192 599.481 288.427 615.507 293.379 631.461 298.221 647.346 302.784 663.185 307.22 678.941 311.524 694.687 315.654 710.365 319.639
0.094  567.902 276.361 583.066 283.14 599.214 288.377 615.244 293.353 631.216 298.206 647.1 302.824 662.914 307.259 678.67 311.533 694.369 315.64 710.084 319.629
0.095  567.626 276.3 582.854 283.069 598.928 288.333 614.979 293.348 630.954 298.183 646.818 302.815 662.629 307.3 678.401 311.544 694.124 315.683 709.797 319.682
0.096  567.372 276.241 582.59 283.019 598.698 288.25 614.73 293.367 630.657 298.148 646.547 302.797 662.351 307.288 678.114 311.545 693.833 315.697 709.512 319.724
0.097  567.112 276.19 582.349 282.983 598.438 288.219 614.468 293.28 630.385 298.143 646.267 302.791 662.073 307.309 677.826 311.631 693.537 315.74 709.226 319.707
0.098  566.883 276.149 582.101 282.925 598.226 288.192 614.228 293.229 630.162 298.124 645.993 302.798 661.825 307.307 677.574 311.589 693.294 315.773 708.971 319.779
0.099  566.642 276.037 581.843 282.85 597.91 288.142 613.96 293.234 629.902 298.116 645.775 302.783 661.521 307.269 677.307 311.604 693.022 315.766 708.71 319.776
0.1  566.36 275.971 581.59 282.73 597.724 288.064 613.762 293.203 629.654 298.078 645.501 302.773 661.264 307.288 676.999 311.622 692.765 315.783 708.411 319.788
0.101  566.091 275.918 581.369 282.666 597.454 288.01 613.424 293.142 629.402 298.043 645.257 302.733 661.01 307.291 676.728 311.571 692.49 315.837 708.2 319.806
0.102  565.862 275.821 581.17 282.581 597.208 287.945 613.219 293.058 629.159 297.947 644.978 302.744 660.772 307.268 676.515 311.613 692.246 315.805 707.895 319.799
0.103  565.609 275.752 580.877 282.486 596.981 287.89 612.998 293.054 628.876 297.991 644.678 302.723 660.491 307.258 676.203 311.587 691.929 315.792 707.633 319.851
0.104  565.308 275.718 580.651 282.403 596.736 287.82 612.708 292.996 628.635 297.916 644.427 302.724 660.216 307.271 675.976 311.628 691.67 315.781 707.363 319.807
0.105  565.091 275.566 580.43 282.36 596.487 287.743 612.486 292.93 628.327 297.921 644.192 302.633 659.956 307.256 675.694 311.608 691.411 315.774 707.128 319.827
0.106  564.84 275.442 580.196 282.191 596.234 287.672 612.252 292.896 628.092 297.866 643.927 302.615 659.745 307.215 675.42 311.611 691.19 315.788 706.906 319.812
0.107  564.643 275.325 579.961 282.087 596.006 287.591 611.98 292.792 627.879 297.835 643.692 302.598 659.491 307.204 675.212 311.565 690.961 315.731 706.642 319.754
0.108  564.392 275.256 579.734 282.01 595.767 287.521 611.697 292.752 627.629 297.761 643.45 302.521 659.226 307.174 674.978 311.531 690.649 315.749 706.365 319.764
0.109  564.113 275.168 579.46 281.904 595.496 287.442 611.494 292.66 627.369 297.711 643.229 302.516 658.994 307.112 674.695 311.518 690.378 315.703 706.064 319.762
0.11  563.82 275.088 579.192 281.86 595.275 287.345 611.24 292.62 627.095 297.658 642.923 302.481 658.726 307.072 674.428 311.514 690.164 315.725 705.832 319.714
0.111  563.535 275.044 578.944 281.777 594.988 287.282 610.972 292.589 626.871 297.618 642.681 302.435 658.424 307.017 674.204 311.447 689.885 315.706 705.616 319.719
0.112  563.259 274.95 578.677 281.697 594.766 287.185 610.752 292.529 626.631 297.554 642.438 302.41 658.183 307.047 673.95 311.426 689.65 315.652 705.349 319.679
0.113  562.985 274.883 578.445 281.625 594.508 287.16 610.447 292.435 626.392 297.476 642.194 302.353 657.967 306.961 673.69 311.375 689.393 315.636 705.113 319.629
0.114  562.718 274.798 578.147 281.476 594.222 287.049 610.248 292.327 626.104 297.422 641.956 302.309 657.703 306.894 673.45 311.35 689.141 315.596 704.865 319.648
0.115  562.441 274.712 577.946 281.403 593.983 286.962 609.962 292.285 625.847 297.386 641.659 302.239 657.424 306.869 673.171 311.32 688.889 315.549 704.614 319.588
0.116  562.157 274.64 577.674 281.294 593.74 286.871 609.696 292.208 625.614 297.327 641.43 302.193 657.169 306.833 672.896 311.254 688.648 315.503 704.371 319.55
0.117  561.889 274.536 577.374 281.203 593.456 286.803 609.498 292.14 625.345 297.245 641.163 302.096 656.915 306.795 672.689 311.204 688.379 315.456 704.106 319.521
0.118  561.632 274.453 577.151 281.082 593.251 286.71 609.206 292.069 625.097 297.17 640.908 302.087 656.691 306.739 672.427 311.238 688.131 315.419 703.887 319.461
0.119  561.329 274.324 576.896 280.974 592.955 286.609 608.938 291.985 624.813 297.092 640.646 302.031 656.409 306.662 672.161 311.11 687.891 315.37 703.64 319.459
0.12  561.053 274.295 576.63 280.864 592.702 286.544 608.659 291.889 624.558 297.024 640.371 301.917 656.155 306.619 671.922 311.075 687.667 315.328 703.375 319.412
