# Gnuplot File : positions of 10 particle(s) Monitored
# 1st Column : time, others : particle(s) number 0 1 2 3 4 5 6 7 8 9 
# nParticles : 10
0.001  581.029 314.371 600.793 314.316 620.3 314.265 639.65 314.153 658.835 314.05 677.903 314 696.811 313.9 715.559 313.819 734.122 313.715 752.527 313.638
0.002  580.438 312.892 599.766 311.585 619.794 313.1 639.29 313.648 658.579 313.854 677.675 313.915 696.583 313.88 715.333 313.815 733.887 313.723 752.33 313.646
0.003  579.773 311.19 599.071 309.729 619.201 311.849 638.832 313.025 658.211 313.467 677.353 313.734 696.34 313.756 715.061 313.752 733.679 313.706 752.085 313.632
0.004  579.18 309.637 598.459 308.283 618.596 310.691 638.406 312.206 657.856 313.014 677.07 313.409 695.998 313.646 714.827 313.675 733.424 313.666 751.814 313.615
0.005  578.559 308.171 597.875 306.929 618.039 309.615 637.895 311.373 657.42 312.447 676.692 313.07 695.696 313.345 714.574 313.573 733.122 313.594 751.558 313.524
0.006  577.928 306.855 597.298 305.754 617.516 308.543 637.425 310.528 657.026 311.863 676.335 312.682 695.369 313.094 714.23 313.367 732.845 313.479 751.353 313.427
0.007  577.392 305.602 596.727 304.595 616.969 307.536 636.917 309.729 656.552 311.238 675.885 312.197 695.022 312.815 713.873 313.14 732.55 313.301 751.045 313.375
0.008  576.857 304.418 596.198 303.508 616.454 306.613 636.421 308.892 656.097 310.572 675.481 311.68 694.658 312.442 713.57 312.839 732.263 313.086 750.683 313.138
0.009  576.364 303.364 595.642 302.531 615.955 305.664 635.933 308.1 655.649 309.905 675.062 311.18 694.256 312.028 713.145 312.558 731.892 312.822 750.375 312.94
0.01  575.865 302.406 595.197 301.562 615.457 304.797 635.466 307.33 655.137 309.222 674.656 310.604 693.849 311.562 712.812 312.188 731.574 312.553 750.031 312.652
0.011  575.363 301.385 594.699 300.702 614.912 303.894 634.953 306.535 654.673 308.551 674.192 310.088 693.423 311.142 712.391 311.842 731.166 312.221 749.667 312.388
0.012  574.869 300.493 594.145 299.825 614.43 303.093 634.472 305.784 654.22 307.931 673.776 309.514 692.968 310.63 712.017 311.436 730.766 311.874 749.286 312.058
0.013  574.376 299.599 593.689 299.036 613.953 302.301 633.98 305.05 653.724 307.262 673.273 308.921 692.547 310.167 711.548 311.012 730.357 311.511 748.875 311.655
0.014  573.843 298.795 593.17 298.183 613.429 301.556 633.487 304.301 653.24 306.611 672.815 308.333 692.089 309.622 711.101 310.544 729.9 311.096 748.451 311.312
0.015  573.373 297.97 592.7 297.416 612.962 300.774 633 303.601 652.756 305.866 672.343 307.75 691.679 309.072 710.669 310.064 729.474 310.618 748.032 310.882
0.016  572.887 297.171 592.261 296.663 612.469 300.082 632.476 302.866 652.246 305.255 671.828 307.112 691.194 308.61 710.239 309.544 729.03 310.173 747.601 310.437
0.017  572.41 296.447 591.751 295.945 612.008 299.345 631.98 302.21 651.797 304.606 671.387 306.507 690.725 307.974 709.779 309.014 728.554 309.703 747.111 309.999
0.018  571.927 295.741 591.246 295.249 611.492 298.582 631.492 301.525 651.244 304.01 670.841 305.945 690.196 307.383 709.278 308.513 728.067 309.217 746.67 309.511
0.019  571.485 294.996 590.774 294.56 610.982 297.939 630.975 300.829 650.792 303.271 670.39 305.278 689.72 306.849 708.81 307.928 727.659 308.703 746.128 308.984
0.02  570.975 294.308 590.358 293.837 610.48 297.238 630.523 300.171 650.307 302.641 669.891 304.675 689.242 306.264 708.335 307.387 727.146 308.102 745.661 308.447
0.021  570.551 293.602 589.81 293.23 609.971 296.52 630.011 299.457 649.818 302.01 669.385 304.059 688.753 305.633 707.808 306.836 726.649 307.581 745.15 307.928
0.022  570.049 292.915 589.391 292.512 609.474 295.932 629.471 298.855 649.307 301.349 668.884 303.412 688.197 305.044 707.265 306.238 726.112 307.018 744.62 307.349
0.023  569.575 292.245 588.836 291.898 609.013 295.26 628.976 298.213 648.764 300.7 668.372 302.798 687.677 304.397 706.768 305.603 725.61 306.395 744.118 306.769
0.024  569.062 291.645 588.37 291.274 608.507 294.611 628.47 297.525 648.272 300.099 667.85 302.162 687.152 303.775 706.263 305.031 725.028 305.83 743.579 306.182
0.025  568.54 291.009 587.874 290.661 608.012 293.983 627.991 296.917 647.739 299.414 667.296 301.523 686.639 303.17 705.685 304.428 724.512 305.212 743.053 305.57
0.026  568.075 290.373 587.423 290.048 607.472 293.322 627.499 296.253 647.245 298.753 666.768 300.878 686.104 302.569 705.156 303.8 723.99 304.571 742.478 304.958
0.027  567.642 289.74 586.896 289.446 606.997 292.68 626.983 295.646 646.721 298.112 666.241 300.249 685.519 301.95 704.672 303.175 723.43 303.961 741.921 304.382
0.028  567.172 289.139 586.449 288.866 606.491 292.056 626.423 295 646.166 297.482 665.712 299.62 685.021 301.26 704.079 302.534 722.871 303.378 741.321 303.75
0.029  566.657 288.524 585.977 288.236 606.022 291.455 625.9 294.343 645.685 296.841 665.138 298.955 684.489 300.67 703.516 301.874 722.29 302.731 740.78 303.103
0.03  566.234 287.989 585.453 287.718 605.49 290.861 625.38 293.736 645.145 296.189 664.618 298.308 683.955 300.011 702.979 301.248 721.705 302.059 740.232 302.488
0.031  565.802 288.11 585.04 287.417 605.034 290.378 624.879 293.194 644.538 295.598 664.107 297.658 683.412 299.359 702.391 300.617 721.166 301.424 739.655 301.83
0.032  565.412 288.257 584.586 287.242 604.55 290.001 624.355 292.619 644.047 295.018 663.546 297.045 682.805 298.722 701.828 299.939 720.59 300.804 739.05 301.205
0.033  565.061 288.386 584.173 287.138 604.077 289.681 623.874 292.203 643.549 294.444 663.011 296.49 682.267 298.089 701.227 299.324 719.999 300.127 738.465 300.535
0.034  564.701 288.469 583.796 287.055 603.648 289.438 623.406 291.774 643.034 293.994 662.484 295.873 681.691 297.485 700.751 298.664 719.408 299.524 737.888 299.895
0.035  564.344 288.604 583.337 287.034 603.22 289.192 622.922 291.454 642.529 293.515 661.955 295.347 681.194 296.9 700.153 298.048 718.841 298.881 737.27 299.246
0.036  564.02 288.75 582.969 287.02 602.786 289.035 622.463 291.105 642.028 293.042 661.376 294.85 680.577 296.317 699.554 297.438 718.264 298.227 736.728 298.606
0.037  563.609 288.819 582.618 286.994 602.365 288.907 622.022 290.786 641.565 292.636 660.877 294.346 680.116 295.731 699.058 296.846 717.747 297.635 736.124 297.989
0.038  563.221 288.896 582.216 286.968 601.949 288.731 621.582 290.509 641.079 292.248 660.406 293.828 679.581 295.213 698.459 296.28 717.178 297.039 735.573 297.38
0.039  562.931 289.037 581.885 286.988 601.556 288.611 621.139 290.298 640.62 291.889 659.935 293.404 679.019 294.701 697.93 295.687 716.621 296.415 735.043 296.753
0.04  562.594 289.142 581.528 287.018 601.186 288.501 620.718 290.043 640.205 291.52 659.442 292.996 678.526 294.186 697.418 295.178 716.063 295.817 734.472 296.179
0.041  562.279 289.28 581.157 287.024 600.808 288.348 620.319 289.778 639.722 291.232 658.978 292.567 678.077 293.688 696.908 294.625 715.555 295.268 733.932 295.602
0.042  561.921 289.391 580.809 287.003 600.383 288.193 619.948 289.54 639.301 290.917 658.525 292.117 677.559 293.231 696.44 294.114 715.001 294.709 733.384 295.003
0.043  561.553 289.438 580.484 287.051 600.02 288.154 619.525 289.339 638.872 290.565 658.071 291.778 677.056 292.764 695.887 293.6 714.54 294.135 732.901 294.494
0.044  561.254 289.542 580.127 287.046 599.659 288.06 619.104 289.148 638.459 290.273 657.603 291.41 676.621 292.334 695.42 293.121 713.972 293.656 732.338 293.901
0.045  560.986 289.647 579.83 287.059 599.281 287.959 618.723 288.969 638.003 290.024 657.165 290.997 676.135 291.933 694.911 292.665 713.475 293.18 731.818 293.409
0.046  560.625 289.772 579.435 287.102 598.952 287.86 618.31 288.812 637.572 289.763 656.735 290.673 675.679 291.493 694.446 292.2 712.99 292.668 731.291 292.927
0.047  560.328 289.86 579.117 287.109 598.598 287.805 617.929 288.597 637.17 289.512 656.293 290.382 675.202 291.128 693.951 291.777 712.483 292.188 730.819 292.452
0.048  560.009 289.948 578.786 287.126 598.237 287.723 617.554 288.492 636.787 289.245 655.847 290.04 674.749 290.709 693.48 291.368 712.04 291.763 730.282 291.989
0.049  559.668 290.025 578.498 287.138 597.862 287.633 617.186 288.316 636.423 289.012 655.43 289.732 674.273 290.39 693.051 290.929 711.514 291.272 729.766 291.536
0.05  559.36 290.129 578.125 287.186 597.493 287.579 616.816 288.176 635.993 288.805 655.047 289.458 673.846 290.062 692.537 290.58 711.029 290.895 729.299 291.094
0.051  559.081 290.15 577.805 287.227 597.167 287.53 616.46 288.015 635.584 288.593 654.61 289.177 673.464 289.667 692.135 290.151 710.579 290.479 728.803 290.663
0.052  558.753 290.274 577.495 287.259 596.822 287.52 616.065 287.909 635.234 288.396 654.164 288.884 673.005 289.367 691.642 289.791 710.113 290.084 728.373 290.227
0.053  558.416 290.333 577.172 287.304 596.469 287.447 615.729 287.764 634.811 288.201 653.781 288.662 672.574 289.036 691.191 289.434 709.662 289.728 727.914 289.842
0.054  558.132 290.481 576.846 287.31 596.117 287.391 615.339 287.617 634.422 288.012 653.391 288.424 672.131 288.758 690.733 289.09 709.208 289.334 727.433 289.453
0.055  557.833 290.444 576.519 287.309 595.822 287.323 615.014 287.548 634.036 287.846 652.97 288.149 671.764 288.479 690.299 288.748 708.709 288.982 727.022 289.134
0.056  557.47 290.603 576.186 287.363 595.504 287.347 614.644 287.427 633.659 287.659 652.587 287.913 671.278 288.206 689.909 288.475 708.304 288.666 726.524 288.739
0.057  557.207 290.687 575.871 287.427 595.133 287.3 614.266 287.293 633.284 287.515 652.19 287.641 670.877 287.93 689.453 288.153 707.88 288.31 726.052 288.409
0.058  556.855 290.71 575.569 287.481 594.816 287.233 613.911 287.2 632.879 287.314 651.785 287.454 670.475 287.64 688.994 287.884 707.419 288.012 725.596 288.104
0.059  556.562 290.844 575.252 287.495 594.453 287.184 613.556 287.135 632.55 287.146 651.418 287.241 670.063 287.391 688.612 287.609 706.957 287.712 725.212 287.748
0.06  556.26 290.911 574.91 287.523 594.169 287.156 613.227 287.058 632.181 286.974 650.999 287.072 669.64 287.158 688.184 287.294 706.534 287.418 724.724 287.488
0.061  555.939 290.97 574.643 287.615 593.815 287.173 612.93 286.971 631.81 286.873 650.634 286.887 669.241 286.951 687.79 286.994 706.09 287.112 724.31 287.218
0.062  555.619 291.117 574.286 287.644 593.49 287.158 612.521 286.861 631.415 286.752 650.221 286.701 668.891 286.729 687.363 286.84 705.714 286.862 723.855 286.894
0.063  555.352 291.185 573.961 287.696 593.138 287.156 612.206 286.847 631.065 286.649 649.835 286.521 668.513 286.533 686.98 286.533 705.275 286.61 723.484 286.64
0.064  555.008 291.25 573.666 287.745 592.814 287.139 611.818 286.743 630.736 286.5 649.476 286.384 668.137 286.3 686.602 286.34 704.894 286.352 723.038 286.377
0.065  554.736 291.391 573.37 287.787 592.491 287.162 611.491 286.697 630.377 286.401 649.114 286.233 667.723 286.125 686.192 286.08 704.487 286.077 722.695 286.101
0.066  554.436 291.462 573.087 287.857 592.186 287.194 611.178 286.619 630.013 286.322 648.784 286.085 667.333 285.95 685.794 285.926 704.072 285.875 722.212 285.887
0.067  554.151 291.603 572.803 287.946 591.86 287.169 610.821 286.59 629.694 286.17 648.387 286.009 666.959 285.769 685.39 285.73 703.686 285.653 721.812 285.655
0.068  553.852 291.641 572.448 287.996 591.538 287.182 610.522 286.518 629.348 286.13 648.031 285.809 666.57 285.652 684.996 285.52 703.321 285.472 721.434 285.459
0.069  553.535 291.773 572.135 288.091 591.196 287.176 610.18 286.561 628.981 286.042 647.682 285.699 666.24 285.47 684.669 285.339 702.873 285.273 721.035 285.221
0.07  553.261 291.858 571.828 288.129 590.917 287.208 609.828 286.496 628.639 285.947 647.306 285.634 665.848 285.33 684.236 285.192 702.528 285.089 720.633 285.047
0.071  552.957 291.965 571.544 288.237 590.555 287.245 609.494 286.513 628.302 285.879 646.989 285.445 665.45 285.191 683.852 285.018 702.123 284.926 720.223 284.877
0.072  552.663 292.021 571.283 288.275 590.26 287.272 609.217 286.434 628.002 285.84 646.586 285.386 665.152 285.073 683.495 284.902 701.75 284.721 719.784 284.731
0.073  552.366 292.148 570.918 288.356 589.955 287.281 608.833 286.413 627.572 285.773 646.245 285.298 664.749 284.929 683.076 284.717 701.329 284.558 719.494 284.526
0.074  552.05 292.222 570.66 288.435 589.634 287.3 608.542 286.409 627.262 285.789 645.913 285.222 664.418 284.836 682.746 284.581 700.96 284.433 719.058 284.364
0.075  551.8 292.385 570.363 288.541 589.327 287.346 608.155 286.446 626.981 285.652 645.549 285.11 664.039 284.702 682.402 284.443 700.634 284.305 718.711 284.217
0.076  551.495 292.471 570.039 288.53 589.035 287.414 607.886 286.402 626.633 285.655 645.176 285.054 663.665 284.636 681.996 284.336 700.253 284.18 718.298 284.14
0.077  551.154 292.546 569.752 288.667 588.718 287.416 607.528 286.382 626.29 285.627 644.817 284.983 663.319 284.537 681.672 284.202 699.811 283.992 717.957 283.916
0.078  550.856 292.633 569.454 288.727 588.396 287.433 607.246 286.423 625.952 285.577 644.551 284.957 662.956 284.418 681.265 284.089 699.502 283.909 717.608 283.793
0.079  550.583 292.725 569.161 288.846 588.139 287.483 606.899 286.432 625.621 285.584 644.196 284.915 662.654 284.365 680.918 284.034 699.137 283.786 717.242 283.705
0.08  550.285 292.817 568.867 288.9 587.771 287.572 606.584 286.436 625.288 285.515 643.832 284.815 662.269 284.299 680.562 283.898 698.773 283.691 716.802 283.606
0.081  549.988 292.895 568.574 288.974 587.501 287.549 606.286 286.449 624.893 285.557 643.47 284.816 661.949 284.248 680.19 283.875 698.391 283.615 716.434 283.529
0.082  549.706 292.96 568.212 289.048 587.157 287.601 605.978 286.51 624.634 285.515 643.132 284.703 661.565 284.163 679.884 283.797 698.041 283.511 716.119 283.407
0.083  549.39 293.052 567.978 289.139 586.838 287.663 605.649 286.459 624.347 285.501 642.816 284.749 661.241 284.111 679.501 283.686 697.681 283.47 715.744 283.342
0.084  549.119 293.119 567.674 289.175 586.509 287.742 605.307 286.518 623.974 285.518 642.464 284.685 660.883 284.064 679.143 283.629 697.307 283.382 715.379 283.237
0.085  548.798 293.203 567.3 289.253 586.21 287.75 605.016 286.539 623.659 285.497 642.147 284.641 660.524 284.03 678.813 283.568 696.962 283.301 715.001 283.174
0.086  548.47 293.271 566.994 289.374 585.863 287.793 604.666 286.591 623.326 285.482 641.805 284.664 660.21 284.007 678.486 283.542 696.601 283.217 714.664 283.123
0.087  548.167 293.355 566.703 289.423 585.625 287.884 604.363 286.595 622.951 285.508 641.446 284.65 659.811 283.963 678.096 283.485 696.226 283.171 714.295 283.061
0.088  547.854 293.443 566.43 289.504 585.31 287.948 604.005 286.601 622.696 285.48 641.14 284.655 659.469 283.961 677.741 283.431 695.914 283.123 713.966 283.011
0.089  547.557 293.521 566.056 289.595 585.01 287.993 603.728 286.638 622.308 285.528 640.815 284.594 659.155 283.896 677.412 283.41 695.525 283.083 713.551 282.928
0.09  547.255 293.626 565.821 289.674 584.668 288.084 603.435 286.692 621.984 285.555 640.433 284.599 658.818 283.909 677.075 283.406 695.205 283.082 713.224 282.902
0.091  546.956 293.699 565.476 289.725 584.321 288.108 603.078 286.701 621.641 285.557 640.115 284.585 658.475 283.872 676.706 283.326 694.874 283.007 712.919 282.845
0.092  546.658 293.804 565.202 289.794 584.002 288.205 602.756 286.766 621.309 285.583 639.826 284.611 658.118 283.882 676.334 283.337 694.491 282.998 712.518 282.843
0.093  546.299 293.869 564.892 289.926 583.702 288.244 602.443 286.792 621.02 285.595 639.441 284.62 657.793 283.9 676.004 283.308 694.147 282.977 712.17 282.816
0.094  545.983 293.982 564.54 290.039 583.375 288.325 602.106 286.85 620.679 285.629 639.136 284.642 657.468 283.854 675.65 283.313 693.781 282.931 711.824 282.845
0.095  545.673 294.026 564.213 290.115 583.031 288.389 601.765 286.892 620.33 285.674 638.779 284.638 657.105 283.889 675.321 283.314 693.466 282.965 711.479 282.782
0.096  545.34 294.14 563.907 290.185 582.734 288.428 601.429 286.979 620.005 285.701 638.425 284.695 656.761 283.894 674.947 283.273 693.118 282.952 711.13 282.769
0.097  545.016 294.228 563.576 290.227 582.443 288.535 601.111 287.019 619.668 285.732 638.082 284.709 656.427 283.912 674.63 283.356 692.79 282.913 710.787 282.788
0.098  544.703 294.271 563.244 290.319 582.118 288.531 600.766 287.082 619.342 285.808 637.806 284.722 656.099 283.957 674.288 283.289 692.408 282.918 710.401 282.78
0.099  544.38 294.388 562.924 290.436 581.73 288.654 600.428 287.129 618.986 285.784 637.441 284.754 655.695 283.98 673.964 283.364 692.04 282.957 710.075 282.777
0.1  544.017 294.444 562.607 290.545 581.464 288.74 600.124 287.183 618.638 285.914 637.084 284.827 655.405 283.954 673.59 283.322 691.728 282.941 709.75 282.796
0.101  543.684 294.528 562.307 290.654 581.113 288.836 599.816 287.251 618.293 285.921 636.77 284.82 655.027 283.981 673.233 283.357 691.367 282.954 709.417 282.807
0.102  543.415 294.607 561.99 290.743 580.797 288.907 599.459 287.321 617.951 285.975 636.46 284.875 654.72 284.067 672.894 283.375 691.072 283.034 709.014 282.826
0.103  543.074 294.685 561.641 290.869 580.475 289.038 599.15 287.417 617.731 286.044 636.071 284.931 654.392 284.092 672.574 283.431 690.659 283.042 708.684 282.812
0.104  542.757 294.806 561.38 290.977 580.144 289.086 598.812 287.468 617.373 286.071 635.748 284.984 654.012 284.105 672.244 283.453 690.352 283.073 708.326 282.879
0.105  542.436 294.903 561.045 291.079 579.839 289.203 598.511 287.576 617.019 286.189 635.417 285.002 653.699 284.158 671.863 283.525 689.997 283.084 707.999 282.908
0.106  542.106 295.102 560.751 291.253 579.508 289.313 598.175 287.643 616.676 286.235 635.069 285.137 653.363 284.185 671.567 283.524 689.671 283.116 707.682 282.957
0.107  541.823 295.196 560.412 291.379 579.194 289.366 597.834 287.751 616.342 286.353 634.724 285.15 653.053 284.253 671.209 283.569 689.343 283.17 707.367 282.997
0.108  541.481 295.269 560.09 291.462 578.837 289.511 597.509 287.804 616.036 286.416 634.434 285.265 652.73 284.345 670.869 283.681 689.015 283.231 707.009 283.052
0.109  541.145 295.334 559.75 291.568 578.528 289.607 597.161 287.917 615.71 286.472 634.083 285.298 652.385 284.36 670.536 283.673 688.619 283.227 706.642 283.054
0.11  540.775 295.387 559.403 291.642 578.207 289.662 596.855 288.005 615.356 286.592 633.745 285.378 652.002 284.45 670.204 283.773 688.287 283.31 706.299 283.12
0.111  540.399 295.501 559.086 291.738 577.885 289.795 596.568 288.093 615.006 286.609 633.431 285.43 651.699 284.506 669.877 283.83 687.939 283.35 705.992 283.199
0.112  540.086 295.531 558.791 291.849 577.519 289.878 596.189 288.172 614.685 286.734 633.085 285.51 651.359 284.596 669.563 283.872 687.615 283.447 705.621 283.248
0.113  539.763 295.71 558.413 291.918 577.223 289.971 595.885 288.271 614.34 286.826 632.717 285.601 650.992 284.68 669.207 283.95 687.276 283.476 705.286 283.314
0.114  539.411 295.729 558.082 292.026 576.854 290.087 595.504 288.308 613.996 286.896 632.436 285.675 650.655 284.753 668.831 284.012 686.934 283.536 704.952 283.369
0.115  539.072 295.823 557.754 292.185 576.519 290.159 595.173 288.456 613.682 286.96 632.052 285.765 650.311 284.804 668.518 284.105 686.604 283.622 704.606 283.43
0.116  538.712 295.941 557.377 292.231 576.169 290.275 594.844 288.539 613.329 287.062 631.736 285.852 649.997 284.885 668.17 284.169 686.241 283.703 704.301 283.474
0.117  538.356 295.959 557.02 292.389 575.867 290.39 594.477 288.66 613.003 287.171 631.379 285.922 649.664 284.961 667.804 284.215 685.919 283.741 703.959 283.59
0.118  538.038 296.085 556.747 292.497 575.504 290.451 594.16 288.737 612.669 287.259 630.984 286.033 649.285 285.053 667.472 284.347 685.554 283.874 703.581 283.651
0.119  537.677 296.136 556.383 292.611 575.169 290.576 593.789 288.833 612.308 287.319 630.682 286.098 648.903 285.137 667.117 284.418 685.22 283.933 703.264 283.695
0.12  537.314 296.207 556.059 292.714 574.788 290.711 593.481 288.977 611.947 287.443 630.336 286.225 648.594 285.233 666.776 284.476 684.844 284.023 702.888 283.849
