# Gnuplot File : positions of 10 particle(s) Monitored
# 1st Column : time, others : particle(s) number 0 1 2 3 4 5 6 7 8 9 
# nParticles : 10
0.001  483.826 56.5483 487.022 51.358 490.135 46.3198 493.124 41.466 496.031 36.7413 498.833 32.1444 501.605 27.7187 504.228 23.4231 506.78 19.2805 509.314 15.2277
0.002  482.695 57.4008 485.031 52.867 489.316 46.9525 492.782 41.7178 495.882 36.8827 498.778 32.2415 501.526 27.8097 504.19 23.4751 506.748 19.3103 509.269 15.2429
0.003  481.411 58.3815 483.669 53.8554 488.407 47.6435 492.242 42.1714 495.588 37.1122 498.62 32.3845 501.437 27.9036 504.131 23.563 506.73 19.3672 509.207 15.2922
0.004  480.245 59.2964 482.543 54.7329 487.525 48.3318 491.666 42.5962 495.238 37.454 498.371 32.6155 501.29 28.0112 504.027 23.6602 506.64 19.4595 509.154 15.3819
0.005  479.161 60.0788 481.578 55.4825 486.681 48.9953 491.034 43.1037 494.784 37.7844 498.079 32.8525 501.12 28.2253 503.929 23.7859 506.573 19.5344 509.072 15.4445
0.006  478.132 60.8896 480.675 56.1906 485.925 49.5937 490.428 43.6206 494.332 38.1285 497.789 33.0957 500.889 28.4004 503.783 23.9242 506.445 19.6488 509.002 15.5705
0.007  477.213 61.62 479.802 56.8584 485.159 50.1855 489.822 44.0927 493.837 38.5835 497.421 33.4017 500.615 28.6117 503.59 24.0886 506.329 19.7766 508.887 15.6845
0.008  476.309 62.3016 479.005 57.4968 484.429 50.7164 489.209 44.6158 493.356 38.929 497.039 33.7164 500.348 28.8498 503.361 24.3001 506.132 19.9678 508.732 15.8463
0.009  475.501 62.9298 478.281 58.0757 483.761 51.2857 488.608 45.0663 492.816 39.3938 496.65 34.0728 500.028 29.163 503.117 24.5131 505.957 20.1424 508.57 15.9907
0.01  474.711 63.5562 477.505 58.6668 483.094 51.831 487.994 45.5424 492.363 39.7518 496.22 34.441 499.688 29.4083 502.862 24.7391 505.709 20.3689 508.375 16.1911
0.011  473.978 64.1433 476.83 59.2048 482.403 52.3649 487.43 45.9879 491.865 40.1705 495.824 34.7539 499.358 29.7189 502.53 25.0185 505.487 20.5503 508.127 16.3958
0.012  473.252 64.6894 476.172 59.7462 481.808 52.838 486.814 46.4817 491.331 40.604 495.355 35.111 498.998 30.0105 502.237 25.2748 505.186 20.8255 507.872 16.5885
0.013  472.575 65.2413 475.54 60.2296 481.206 53.3536 486.271 46.9592 490.819 41.038 494.914 35.4974 498.599 30.3685 501.9 25.5733 504.874 21.0746 507.63 16.8367
0.014  471.95 65.7883 474.911 60.7614 480.594 53.8235 485.709 47.393 490.349 41.4257 494.465 35.8579 498.199 30.673 501.582 25.8184 504.576 21.333 507.3 17.111
0.015  471.304 66.2854 474.289 61.2143 479.993 54.3311 485.14 47.8592 489.824 41.8519 494.029 36.2307 497.802 31.0127 501.194 26.1502 504.233 21.6503 506.984 17.4005
0.016  470.712 66.7744 473.742 61.7445 479.429 54.8016 484.606 48.2915 489.345 42.252 493.602 36.6151 497.354 31.3689 500.799 26.4979 503.911 21.9304 506.67 17.6671
0.017  470.088 67.2681 473.155 62.1581 478.861 55.2391 484.079 48.7436 488.831 42.678 493.098 37.0158 496.966 31.7274 500.408 26.8281 503.535 22.2328 506.307 17.9912
0.018  469.528 67.7592 472.604 62.6176 478.318 55.6877 483.549 49.1536 488.323 43.0803 492.636 37.4067 496.55 32.1131 500.008 27.1424 503.121 22.5842 505.922 18.2846
0.019  468.942 68.2137 472.055 63.0776 477.778 56.143 483.033 49.5953 487.822 43.4737 492.155 37.818 496.074 32.4824 499.599 27.5232 502.754 22.9045 505.58 18.6256
0.02  468.398 68.6992 471.495 63.5462 477.217 56.5872 482.495 50.0456 487.334 43.9445 491.718 38.2092 495.638 32.8419 499.157 27.8675 502.327 23.252 505.16 18.9722
0.021  467.825 69.1083 470.973 64.0009 476.718 57.0128 481.989 50.4629 486.816 44.2984 491.188 38.5946 495.2 33.2343 498.764 28.2363 501.917 23.5896 504.764 19.2855
0.022  467.276 69.568 470.448 64.4055 476.198 57.4763 481.476 50.888 486.288 44.7545 490.723 38.9917 494.725 33.6307 498.308 28.6213 501.49 23.9587 504.345 19.6382
0.023  466.769 70.038 469.959 64.8263 475.677 57.9137 480.988 51.3169 485.822 45.228 490.261 39.4415 494.252 33.9727 497.849 29.0005 501.073 24.3514 503.931 20.0027
0.024  466.237 70.474 469.434 65.2749 475.187 58.335 480.469 51.7316 485.326 45.6113 489.747 39.8269 493.789 34.4301 497.4 29.4008 500.634 24.7276 503.471 20.4024
0.025  465.692 70.9053 468.936 65.6803 474.657 58.7691 479.927 52.1979 484.832 46.0134 489.264 40.2282 493.31 34.8305 496.932 29.7956 500.191 25.1042 503.051 20.7632
0.026  465.212 71.3487 468.421 66.1053 474.151 59.1795 479.436 52.6412 484.309 46.425 488.781 40.6427 492.832 35.2442 496.476 30.1596 499.717 25.4886 502.596 21.1607
0.027  464.662 71.7883 467.935 66.534 473.659 59.5952 478.93 53.0474 483.796 46.8638 488.278 41.0468 492.365 35.6596 495.997 30.5712 499.243 25.8627 502.138 21.5367
0.028  464.168 72.1987 467.457 66.9565 473.144 60.0302 478.42 53.4813 483.333 47.287 487.782 41.4713 491.838 36.0731 495.488 31.0109 498.813 26.2954 501.661 21.9312
0.029  463.689 72.6367 466.972 67.3772 472.644 60.4532 477.922 53.8686 482.834 47.7464 487.296 41.9292 491.358 36.4702 495.021 31.4005 498.324 26.6976 501.201 22.3191
0.03  463.212 73.0139 466.488 67.7635 472.135 60.8962 477.448 54.2931 482.293 48.1731 486.781 42.3624 490.865 36.9007 494.521 31.8185 497.834 27.0884 500.726 22.7074
0.031  463.235 73.1679 466.224 68.0994 471.763 61.2402 476.938 54.7332 481.815 48.58 486.308 42.7835 490.372 37.3486 494.052 32.2503 497.368 27.5064 500.272 23.135
0.032  463.318 73.3496 466.064 68.3253 471.407 61.5689 476.551 55.1247 481.361 48.9997 485.81 43.1736 489.896 37.7264 493.565 32.6429 496.862 27.9775 499.785 23.5335
0.033  463.354 73.5077 465.936 68.5663 471.159 61.8883 476.176 55.4844 480.925 49.3563 485.345 43.5604 489.395 38.135 493.062 33.0778 496.38 28.3588 499.313 23.9622
0.034  463.349 73.6032 465.824 68.7775 470.884 62.2012 475.862 55.8145 480.514 49.7497 484.897 44.0021 488.942 38.5485 492.575 33.4778 495.883 28.791 498.827 24.3538
0.035  463.41 73.7827 465.759 68.9523 470.707 62.4543 475.528 56.1316 480.138 50.1143 484.474 44.397 488.458 38.9552 492.131 33.9039 495.413 29.1852 498.358 24.8105
0.036  463.419 73.8937 465.667 69.1594 470.526 62.7069 475.232 56.4374 479.761 50.4676 484.083 44.7902 488.013 39.3821 491.629 34.3159 494.939 29.6261 497.836 25.2133
0.037  463.465 74.0657 465.601 69.348 470.316 62.9949 474.945 56.7657 479.458 50.8375 483.665 45.1367 487.576 39.7954 491.212 34.7269 494.467 30.0039 497.413 25.641
0.038  463.462 74.1489 465.563 69.5347 470.182 63.2133 474.72 57.0471 479.103 51.1589 483.289 45.4965 487.193 40.171 490.736 35.1467 494.036 30.4315 496.931 26.0527
0.039  463.481 74.2817 465.521 69.711 470.028 63.462 474.488 57.3654 478.824 51.5014 482.913 45.871 486.763 40.5488 490.312 35.5522 493.581 30.8042 496.47 26.4335
0.04  463.512 74.4175 465.428 69.8802 469.881 63.6646 474.24 57.6095 478.516 51.7844 482.54 46.2017 486.364 40.919 489.901 35.8969 493.121 31.1991 496.035 26.794
0.041  463.554 74.5012 465.427 70.0238 469.751 63.8635 474.058 57.8823 478.23 52.1308 482.219 46.5443 485.997 41.2606 489.474 36.2658 492.682 31.5993 495.604 27.2184
0.042  463.538 74.6362 465.357 70.2048 469.627 64.0624 473.89 58.1348 477.966 52.3739 481.903 46.8658 485.611 41.6099 489.106 36.6693 492.304 31.9448 495.203 27.5835
0.043  463.592 74.7422 465.324 70.3653 469.512 64.2548 473.637 58.373 477.709 52.6624 481.613 47.1806 485.252 41.9755 488.733 37.0215 491.902 32.3538 494.77 27.9806
0.044  463.623 74.8378 465.312 70.4645 469.373 64.4711 473.478 58.6306 477.444 52.9722 481.313 47.5231 484.916 42.3017 488.332 37.3947 491.488 32.726 494.38 28.3425
0.045  463.635 74.96 465.237 70.622 469.289 64.708 473.329 58.8779 477.221 53.2065 481.003 47.8261 484.593 42.6576 487.975 37.7447 491.103 33.0815 493.994 28.7179
0.046  463.643 75.0788 465.23 70.7826 469.201 64.8687 473.098 59.1005 476.979 53.5232 480.735 48.1413 484.265 42.9552 487.606 38.0929 490.736 33.4539 493.598 29.0804
0.047  463.679 75.1851 465.187 70.9199 469.084 65.0401 472.977 59.3162 476.77 53.8105 480.412 48.4419 483.964 43.2726 487.264 38.4181 490.36 33.8092 493.245 29.4296
0.048  463.714 75.2621 465.173 71.0543 468.992 65.2307 472.783 59.5421 476.52 54.0146 480.145 48.7193 483.648 43.6042 486.925 38.7708 490.024 34.1639 492.902 29.793
0.049  463.72 75.3921 465.133 71.1929 468.893 65.4057 472.674 59.766 476.306 54.2827 479.899 49.0181 483.365 43.9159 486.605 39.0818 489.674 34.4732 492.497 30.0979
0.05  463.7 75.4889 465.096 71.3329 468.835 65.6043 472.484 59.9886 476.134 54.5316 479.665 49.28 483.064 44.2312 486.309 39.3901 489.35 34.7873 492.178 30.4549
0.051  463.7 75.6044 465.078 71.4464 468.731 65.7817 472.315 60.2061 475.942 54.7955 479.439 49.5625 482.782 44.5565 485.998 39.7226 489.037 35.1336 491.868 30.783
0.052  463.73 75.7099 465.03 71.6176 468.629 65.9376 472.202 60.4086 475.734 55.0597 479.191 49.814 482.533 44.8225 485.681 40.0289 488.701 35.4628 491.592 31.0619
0.053  463.74 75.8523 465.007 71.6981 468.557 66.11 472.093 60.6428 475.566 55.2746 478.976 50.0906 482.256 45.0899 485.432 40.3292 488.418 35.7367 491.277 31.3841
0.054  463.78 75.9262 464.985 71.8418 468.49 66.2483 471.929 60.8329 475.372 55.5022 478.753 50.36 481.988 45.4081 485.137 40.591 488.146 36.0672 490.964 31.7023
0.055  463.799 76.0424 464.956 71.9764 468.386 66.4085 471.813 61.0421 475.197 55.7611 478.526 50.6164 481.751 45.7011 484.88 40.9335 487.85 36.3639 490.693 32.0373
0.056  463.777 76.1337 464.941 72.1368 468.32 66.6181 471.664 61.2086 475.051 55.9774 478.289 50.9097 481.518 45.9563 484.619 41.2394 487.594 36.6347 490.401 32.3104
0.057  463.769 76.2444 464.912 72.2321 468.265 66.7784 471.552 61.4108 474.863 56.2058 478.109 51.137 481.301 46.2088 484.391 41.4976 487.317 36.9689 490.148 32.5799
0.058  463.778 76.3801 464.911 72.3888 468.156 66.9383 471.455 61.6315 474.72 56.4023 477.937 51.3793 481.079 46.4906 484.083 41.7759 487.08 37.2237 489.87 32.9043
0.059  463.809 76.4887 464.888 72.5074 468.07 67.1021 471.344 61.8075 474.546 56.6323 477.773 51.627 480.851 46.7261 483.899 42.0321 486.815 37.5174 489.622 33.1658
0.06  463.78 76.6087 464.853 72.6268 468.036 67.2998 471.238 61.9535 474.401 56.8592 477.552 51.8681 480.676 46.9679 483.671 42.3117 486.611 37.81 489.372 33.4354
0.061  463.809 76.7203 464.838 72.7671 467.963 67.4231 471.115 62.1754 474.297 57.0745 477.383 52.0741 480.468 47.2521 483.466 42.5627 486.344 38.0608 489.148 33.7341
0.062  463.864 76.8199 464.818 72.881 467.928 67.5823 471.023 62.3463 474.135 57.2369 477.241 52.2827 480.289 47.4901 483.234 42.8602 486.115 38.3383 488.942 33.9838
0.063  463.866 76.9346 464.795 73.0168 467.868 67.707 470.956 62.5318 474 57.4569 477.067 52.5225 480.076 47.7296 483.026 43.0736 485.933 38.5715 488.704 34.2458
0.064  463.886 77.0099 464.8 73.1581 467.779 67.8758 470.843 62.7148 473.89 57.6724 476.9 52.7528 479.914 47.9683 482.829 43.3253 485.696 38.8312 488.472 34.5202
0.065  463.92 77.1107 464.809 73.2156 467.759 68.0503 470.768 62.9231 473.736 57.8436 476.74 52.9473 479.724 48.2115 482.62 43.5475 485.505 39.0936 488.286 34.7588
0.066  463.934 77.1928 464.784 73.3622 467.715 68.1442 470.677 63.0624 473.67 58.0743 476.624 53.2045 479.575 48.4318 482.483 43.8154 485.282 39.3261 488.089 35.0133
0.067  463.982 77.2766 464.819 73.4832 467.674 68.2896 470.628 63.2326 473.547 58.2791 476.483 53.3807 479.407 48.6362 482.295 44.0412 485.118 39.5862 487.869 35.2383
0.068  463.981 77.4109 464.801 73.5683 467.659 68.4642 470.521 63.3862 473.425 58.4261 476.381 53.5926 479.247 48.871 482.146 44.2625 484.919 39.7959 487.713 35.4819
0.069  463.999 77.4789 464.811 73.6701 467.606 68.5655 470.473 63.5383 473.328 58.6086 476.231 53.7944 479.094 49.0623 481.944 44.5106 484.753 40.029 487.503 35.6796
0.07  464.039 77.5971 464.801 73.8226 467.597 68.6817 470.403 63.7207 473.257 58.8043 476.096 53.9826 478.941 49.284 481.817 44.7231 484.595 40.2687 487.34 35.9239
0.071  464.065 77.6554 464.826 73.8913 467.571 68.8865 470.356 63.8554 473.154 58.9663 475.989 54.1771 478.816 49.5072 481.655 44.9265 484.411 40.4942 487.175 36.1698
0.072  464.074 77.7721 464.849 73.9876 467.511 68.9889 470.284 64.0242 473.054 59.1385 475.892 54.39 478.698 49.7173 481.521 45.1145 484.266 40.6545 487.042 36.3626
0.073  464.092 77.8229 464.849 74.0638 467.497 69.0873 470.198 64.1758 472.988 59.3029 475.765 54.5538 478.557 49.8882 481.359 45.3368 484.157 40.9086 486.91 36.5715
0.074  464.12 77.9181 464.838 74.2192 467.478 69.2087 470.142 64.3054 472.908 59.4797 475.653 54.7577 478.448 50.0934 481.236 45.5488 484.007 41.1462 486.779 36.8154
0.075  464.108 77.9996 464.844 74.2908 467.455 69.3696 470.102 64.4634 472.845 59.6558 475.572 54.9204 478.336 50.2943 481.072 45.7547 483.849 41.3083 486.607 37.0002
0.076  464.129 78.0892 464.837 74.4165 467.418 69.4907 470.053 64.6217 472.754 59.7876 475.495 55.0929 478.219 50.4785 480.981 45.9826 483.749 41.5107 486.475 37.2123
0.077  464.156 78.1828 464.841 74.497 467.411 69.5871 470.007 64.7526 472.716 59.933 475.394 55.2869 478.137 50.6937 480.845 46.1657 483.62 41.7537 486.354 37.4059
0.078  464.152 78.281 464.878 74.5975 467.397 69.7559 469.979 64.8762 472.626 60.1366 475.297 55.4629 478.016 50.8453 480.764 46.3646 483.456 41.9612 486.213 37.6216
0.079  464.218 78.3929 464.885 74.6768 467.396 69.8455 469.939 65.0433 472.555 60.259 475.232 55.6092 477.91 51.0578 480.616 46.5657 483.393 42.1182 486.113 37.7951
0.08  464.203 78.4447 464.917 74.7954 467.352 69.9457 469.92 65.1494 472.51 60.4134 475.138 55.7657 477.837 51.1994 480.54 46.7473 483.255 42.3281 486.025 37.9869
0.081  464.267 78.5284 464.929 74.8666 467.307 70.0807 469.869 65.3086 472.447 60.5891 475.094 55.9345 477.737 51.3744 480.45 46.9193 483.174 42.5117 485.894 38.1705
0.082  464.246 78.6488 464.926 74.9774 467.328 70.1467 469.82 65.4322 472.412 60.7288 474.997 56.0984 477.634 51.5389 480.343 47.065 483.048 42.7002 485.789 38.3332
0.083  464.274 78.7145 464.929 75.0771 467.311 70.2962 469.788 65.5418 472.298 60.8673 474.927 56.2346 477.58 51.7401 480.277 47.2662 482.995 42.8654 485.695 38.5604
0.084  464.265 78.8135 464.897 75.191 467.318 70.3995 469.763 65.6905 472.272 60.9942 474.873 56.4096 477.504 51.8825 480.176 47.4481 482.854 43.0301 485.638 38.7085
0.085  464.292 78.9115 464.944 75.2443 467.32 70.516 469.71 65.8073 472.261 61.1727 474.814 56.5949 477.437 52.0423 480.111 47.5961 482.792 43.1999 485.495 38.9125
0.086  464.297 79.0185 464.947 75.3363 467.297 70.6211 469.718 65.9159 472.181 61.2882 474.741 56.7119 477.366 52.2085 480.019 47.7358 482.715 43.3633 485.425 39.0409
0.087  464.263 79.0792 464.942 75.4738 467.257 70.7465 469.691 66.0762 472.191 61.4339 474.697 56.8487 477.322 52.3789 479.933 47.961 482.633 43.5606 485.352 39.2468
0.088  464.303 79.1726 464.967 75.5448 467.27 70.8805 469.666 66.178 472.102 61.5768 474.648 57.0314 477.241 52.5089 479.86 48.081 482.55 43.7056 485.284 39.3704
0.089  464.311 79.2692 464.946 75.6361 467.243 70.9537 469.631 66.3011 472.073 61.7003 474.599 57.1491 477.158 52.6639 479.802 48.2657 482.482 43.878 485.174 39.5386
0.09  464.295 79.3597 464.984 75.7592 467.263 71.0477 469.638 66.441 472.043 61.8461 474.552 57.3047 477.118 52.8457 479.741 48.4031 482.442 44.0273 485.142 39.6922
0.091  464.321 79.4588 464.979 75.8317 467.237 71.2128 469.619 66.5449 472.002 61.9751 474.523 57.4397 477.061 52.9764 479.685 48.5104 482.354 44.1526 485.069 39.8503
0.092  464.334 79.5342 464.984 75.9287 467.216 71.3045 469.557 66.6811 471.988 62.0988 474.464 57.5872 476.999 53.1083 479.622 48.7017 482.27 44.3073 484.998 40.0177
0.093  464.362 79.6323 464.962 76.0477 467.217 71.4037 469.541 66.8155 471.973 62.241 474.438 57.7223 476.975 53.2764 479.56 48.8324 482.264 44.5008 484.94 40.1334
0.094  464.354 79.724 465.008 76.1442 467.213 71.4827 469.573 66.9208 471.939 62.3568 474.4 57.8755 476.935 53.4156 479.527 48.9931 482.175 44.6474 484.88 40.3386
0.095  464.346 79.7965 464.996 76.2307 467.23 71.6053 469.532 67.016 471.931 62.4931 474.382 58.0095 476.882 53.5598 479.479 49.1638 482.147 44.8006 484.858 40.4165
0.096  464.383 79.9344 465.013 76.284 467.235 71.747 469.539 67.1529 471.867 62.5968 474.33 58.1233 476.849 53.6669 479.427 49.3002 482.105 44.9041 484.783 40.5842
0.097  464.406 79.994 465.023 76.413 467.21 71.8292 469.518 67.2725 471.837 62.7213 474.307 58.2372 476.809 53.816 479.378 49.4294 482.039 45.0676 484.749 40.74
0.098  464.374 80.1347 465.073 76.4871 467.239 71.9447 469.481 67.3814 471.846 62.8712 474.273 58.3779 476.768 53.9678 479.358 49.5677 482.021 45.204 484.721 40.8565
0.099  464.395 80.2134 465.053 76.6112 467.218 72.0522 469.509 67.4894 471.862 62.9791 474.268 58.5299 476.714 54.1031 479.336 49.7005 481.934 45.3383 484.658 41.0004
0.1  464.383 80.3278 465.06 76.6603 467.23 72.1276 469.488 67.5921 471.802 63.1053 474.224 58.6388 476.688 54.2491 479.279 49.8161 481.913 45.4623 484.659 41.1257
0.101  464.409 80.3991 465.118 76.7873 467.237 72.2375 469.511 67.7123 471.812 63.2027 474.208 58.7893 476.686 54.3428 479.263 49.9874 481.885 45.6005 484.584 41.2601
0.102  464.378 80.4944 465.122 76.8738 467.265 72.3013 469.454 67.7889 471.813 63.3168 474.203 58.8991 476.674 54.4968 479.215 50.1073 481.85 45.7211 484.559 41.4154
0.103  464.407 80.5866 465.131 76.9189 467.261 72.4686 469.48 67.923 471.795 63.4575 474.19 59.0155 476.67 54.577 479.209 50.2097 481.832 45.8815 484.545 41.5449
0.104  464.38 80.7277 465.155 77.0477 467.27 72.5245 469.466 68.0141 471.786 63.5751 474.184 59.1438 476.629 54.7056 479.215 50.3314 481.805 45.9924 484.546 41.6498
0.105  464.437 80.758 465.193 77.1147 467.298 72.5996 469.487 68.0932 471.778 63.6707 474.138 59.237 476.617 54.8267 479.147 50.4685 481.791 46.1176 484.527 41.7646
0.106  464.508 80.7908 465.276 77.136 467.3 72.6986 469.489 68.2299 471.772 63.7935 474.141 59.3591 476.604 54.9457 479.154 50.5588 481.792 46.2477 484.485 41.8981
0.107  464.537 80.8791 465.268 77.2421 467.32 72.7702 469.537 68.3068 471.758 63.8958 474.126 59.4487 476.595 55.0975 479.114 50.728 481.765 46.3648 484.462 41.9965
0.108  464.516 80.9539 465.27 77.2981 467.327 72.8455 469.508 68.4213 471.793 64.0202 474.134 59.5693 476.587 55.1877 479.144 50.8406 481.75 46.4662 484.436 42.1163
0.109  464.539 81.0694 465.311 77.4018 467.37 72.9146 469.541 68.4974 471.808 64.0887 474.141 59.6652 476.598 55.3003 479.1 50.9399 481.737 46.5942 484.428 42.2652
0.11  464.496 81.2139 465.293 77.4942 467.351 73.0526 469.546 68.6087 471.798 64.1944 474.146 59.8074 476.576 55.4227 479.113 51.0568 481.732 46.7102 484.413 42.4022
0.111  464.495 81.2734 465.312 77.6186 467.386 73.1479 469.567 68.6881 471.808 64.306 474.168 59.9027 476.571 55.5375 479.09 51.1603 481.72 46.7883 484.428 42.458
0.112  464.542 81.3775 465.315 77.6861 467.412 73.2424 469.542 68.8295 471.81 64.3816 474.151 59.9711 476.57 55.6162 479.099 51.2649 481.731 46.917 484.41 42.5795
0.113  464.516 81.5014 465.36 77.7732 467.43 73.2942 469.59 68.89 471.85 64.4838 474.157 60.081 476.568 55.7362 479.084 51.3758 481.683 47.0108 484.405 42.6921
0.114  464.501 81.5825 465.409 77.8592 467.426 73.4146 469.61 68.9991 471.827 64.5928 474.165 60.2035 476.592 55.8208 479.112 51.4645 481.689 47.1287 484.408 42.7957
0.115  464.496 81.6951 465.432 77.9483 467.449 73.4896 469.571 69.1038 471.826 64.7029 474.134 60.3207 476.595 55.9489 479.142 51.5726 481.692 47.2465 484.434 42.9004
0.116  464.518 81.7754 465.412 78.0141 467.487 73.6034 469.604 69.1858 471.866 64.7621 474.17 60.4067 476.575 56.0313 479.129 51.6705 481.708 47.3289 484.41 43.0031
0.117  464.525 81.8972 465.441 78.1183 467.474 73.689 469.64 69.2826 471.886 64.881 474.191 60.5215 476.602 56.1636 479.085 51.7894 481.728 47.4638 484.398 43.121
0.118  464.504 81.9887 465.47 78.1855 467.49 73.7809 469.646 69.3909 471.87 64.9828 474.204 60.6334 476.584 56.2925 479.093 51.8982 481.722 47.5468 484.406 43.2081
0.119  464.53 82.0917 465.485 78.2837 467.536 73.872 469.651 69.4399 471.885 65.0849 474.166 60.6863 476.625 56.3098 479.1 51.9996 481.727 47.6439 484.405 43.3059
0.12  464.508 82.1681 465.513 78.3392 467.548 73.9044 469.654 69.5629 471.882 65.153 474.212 60.7959 476.656 56.4651 479.148 52.0836 481.751 47.7586 484.439 43.4064
