# Gnuplot File : positions of 10 particle(s) Monitored
# 1st Column : time, others : particle(s) number 0 1 2 3 4 5 6 7 8 9 
# nParticles : 10
0.001  581.1 314.401 600.75 314.315 620.323 314.19 639.703 314.115 658.855 314.073 677.917 313.967 696.813 313.912 715.522 313.818 734.095 313.763 752.53 313.638
0.002  580.451 312.923 599.831 311.562 619.769 313.134 639.32 313.648 658.6 313.849 677.698 313.891 696.584 313.842 715.35 313.808 733.886 313.693 752.253 313.697
0.003  579.787 311.231 599.094 309.729 619.175 311.885 638.866 312.988 658.212 313.496 677.412 313.722 696.311 313.809 715.067 313.735 733.667 313.681 752.111 313.662
0.004  579.178 309.614 598.433 308.293 618.587 310.709 638.41 312.178 657.878 313.014 677.014 313.471 696.002 313.616 714.819 313.653 733.442 313.668 751.847 313.59
0.005  578.587 308.122 597.877 306.933 618.058 309.567 637.908 311.383 657.443 312.464 676.708 313.1 695.706 313.411 714.521 313.52 733.115 313.595 751.591 313.523
0.006  577.962 306.806 597.314 305.729 617.466 308.523 637.408 310.537 656.99 311.841 676.308 312.658 695.355 313.122 714.239 313.377 732.88 313.483 751.352 313.452
0.007  577.437 305.595 596.749 304.593 616.948 307.533 636.874 309.677 656.532 311.231 675.939 312.208 695.023 312.809 713.88 313.182 732.569 313.302 751.019 313.31
0.008  576.903 304.445 596.193 303.553 616.505 306.601 636.467 308.919 656.098 310.529 675.515 311.699 694.671 312.441 713.544 312.882 732.251 313.107 750.751 313.126
0.009  576.369 303.409 595.678 302.555 615.912 305.644 635.942 308.087 655.648 309.917 675.094 311.181 694.25 312.009 713.165 312.569 731.88 312.859 750.388 312.921
0.01  575.835 302.371 595.18 301.529 615.426 304.773 635.397 307.315 655.14 309.222 674.635 310.63 693.855 311.604 712.813 312.204 731.533 312.523 750.038 312.728
0.011  575.357 301.41 594.688 300.653 614.881 303.937 634.928 306.553 654.693 308.591 674.205 310.093 693.442 311.167 712.424 311.843 731.162 312.201 749.644 312.413
0.012  574.858 300.469 594.16 299.83 614.449 303.063 634.474 305.755 654.197 307.913 673.769 309.447 692.958 310.648 712.016 311.446 730.749 311.882 749.277 312.054
0.013  574.318 299.623 593.692 299.009 613.933 302.329 633.954 305.059 653.706 307.226 673.257 308.928 692.579 310.164 711.567 310.989 730.355 311.498 748.895 311.721
0.014  573.841 298.787 593.193 298.188 613.412 301.564 633.467 304.315 653.241 306.59 672.841 308.359 692.09 309.63 711.147 310.562 729.92 311.085 748.437 311.307
0.015  573.403 297.993 592.697 297.401 612.96 300.743 632.969 303.601 652.802 305.943 672.315 307.744 691.631 309.095 710.72 310.067 729.467 310.657 747.984 310.901
0.016  572.891 297.17 592.209 296.648 612.412 300.005 632.508 302.906 652.28 305.252 671.841 307.108 691.13 308.534 710.233 309.57 729.042 310.155 747.54 310.467
0.017  572.433 296.414 591.722 295.95 611.957 299.348 631.996 302.164 651.812 304.611 671.394 306.512 690.712 307.974 709.798 309.041 728.594 309.64 747.106 309.981
0.018  571.924 295.695 591.246 295.256 611.5 298.597 631.48 301.492 651.296 303.933 670.875 305.92 690.234 307.399 709.307 308.503 728.102 309.181 746.614 309.49
0.019  571.447 294.998 590.76 294.521 610.96 297.933 630.984 300.813 650.815 303.314 670.397 305.298 689.702 306.835 708.762 307.941 727.588 308.676 746.167 308.964
0.02  571.028 294.27 590.303 293.848 610.456 297.231 630.528 300.131 650.319 302.652 669.899 304.648 689.212 306.242 708.293 307.378 727.133 308.112 745.666 308.477
0.021  570.515 293.627 589.829 293.227 610.016 296.538 629.987 299.536 649.764 302.003 669.352 304.064 688.727 305.662 707.833 306.838 726.617 307.565 745.166 307.942
0.022  570.03 292.935 589.34 292.567 609.494 295.895 629.497 298.858 649.299 301.363 668.846 303.399 688.207 305.025 707.293 306.248 726.111 307.009 744.605 307.369
0.023  569.558 292.333 588.878 291.936 609.036 295.274 628.977 298.226 648.784 300.725 668.369 302.801 687.717 304.436 706.739 305.599 725.576 306.423 744.134 306.774
0.024  569.118 291.669 588.364 291.33 608.513 294.627 628.481 297.532 648.316 300.063 667.813 302.134 687.152 303.774 706.237 305.074 725.053 305.783 743.565 306.164
0.025  568.593 290.998 587.891 290.718 608.007 293.969 627.938 296.887 647.763 299.44 667.33 301.52 686.592 303.173 705.723 304.417 724.463 305.216 743.044 305.589
0.026  568.098 290.395 587.415 290.073 607.529 293.356 627.436 296.246 647.223 298.747 666.767 300.92 686.086 302.534 705.168 303.798 723.953 304.584 742.497 305.008
0.027  567.601 289.721 586.909 289.46 606.997 292.72 626.972 295.638 646.692 298.185 666.263 300.224 685.566 301.926 704.665 303.166 723.392 303.976 741.941 304.356
0.028  567.194 289.162 586.411 288.871 606.504 292.098 626.464 294.981 646.196 297.481 665.698 299.598 685.009 301.298 704.079 302.48 722.845 303.376 741.353 303.735
0.029  566.646 288.549 585.926 288.249 606.006 291.508 625.896 294.385 645.683 296.889 665.183 298.971 684.453 300.638 703.559 301.892 722.311 302.714 740.787 303.106
0.03  566.151 287.958 585.469 287.673 605.48 290.891 625.382 293.764 645.136 296.224 664.624 298.297 683.916 299.995 702.976 301.278 721.763 302.088 740.173 302.453
0.031  565.783 288.085 584.996 287.371 605.032 290.417 624.885 293.125 644.626 295.59 664.079 297.639 683.383 299.302 702.403 300.572 721.195 301.442 739.648 301.813
0.032  565.449 288.228 584.604 287.266 604.54 290.012 624.367 292.683 644.091 295.021 663.548 297.045 682.831 298.683 701.851 299.99 720.596 300.76 739.06 301.175
0.033  565.09 288.367 584.169 287.146 604.101 289.704 623.905 292.184 643.543 294.479 663.015 296.469 682.262 298.068 701.237 299.302 720.021 300.123 738.497 300.549
0.034  564.685 288.459 583.747 287.099 603.617 289.43 623.367 291.763 643.05 293.984 662.418 295.832 681.688 297.482 700.685 298.698 719.439 299.461 737.878 299.909
0.035  564.351 288.595 583.358 287.026 603.199 289.209 622.944 291.405 642.489 293.543 661.97 295.345 681.152 296.902 700.151 298.058 718.891 298.87 737.307 299.264
0.036  564.009 288.685 582.957 287.004 602.746 289.026 622.468 291.084 642.01 293.079 661.405 294.798 680.622 296.3 699.55 297.479 718.304 298.252 736.752 298.623
0.037  563.642 288.808 582.616 286.991 602.388 288.9 622.012 290.743 641.525 292.64 660.946 294.294 680.084 295.753 699.035 296.877 717.738 297.616 736.105 298.007
0.038  563.277 288.938 582.243 286.983 601.94 288.758 621.603 290.524 641.042 292.254 660.45 293.856 679.582 295.213 698.458 296.29 717.152 296.982 735.61 297.351
0.039  562.917 289.041 581.878 286.965 601.578 288.583 621.151 290.232 640.611 291.872 659.934 293.365 679.086 294.692 697.953 295.696 716.598 296.404 735.019 296.696
0.04  562.602 289.146 581.496 287.006 601.169 288.438 620.749 290.007 640.185 291.536 659.466 292.935 678.554 294.214 697.43 295.18 716.092 295.818 734.476 296.149
0.041  562.294 289.234 581.11 286.987 600.747 288.376 620.319 289.744 639.759 291.189 658.983 292.543 678.062 293.678 696.912 294.599 715.537 295.245 733.932 295.582
0.042  561.912 289.306 580.813 286.98 600.433 288.204 619.903 289.546 639.282 290.879 658.546 292.13 677.572 293.245 696.428 294.149 715.008 294.698 733.398 295.013
0.043  561.616 289.457 580.439 286.972 600.02 288.136 619.51 289.345 638.842 290.604 658.084 291.727 677.105 292.762 695.89 293.603 714.477 294.16 732.861 294.49
0.044  561.27 289.568 580.135 287.045 599.678 288.074 619.09 289.18 638.467 290.32 657.593 291.434 676.619 292.402 695.426 293.089 713.942 293.638 732.319 293.946
0.045  560.981 289.673 579.755 287.112 599.279 287.935 618.722 288.984 638.03 290.022 657.157 291.045 676.143 291.913 694.905 292.645 713.492 293.165 731.87 293.461
0.046  560.633 289.753 579.458 287.108 598.94 287.868 618.354 288.799 637.601 289.791 656.713 290.677 675.665 291.523 694.446 292.203 712.984 292.67 731.328 292.96
0.047  560.306 289.878 579.112 287.114 598.566 287.828 617.931 288.629 637.203 289.473 656.278 290.349 675.262 291.115 693.928 291.758 712.459 292.244 730.812 292.45
0.048  559.961 289.962 578.789 287.19 598.236 287.737 617.558 288.466 636.78 289.274 655.875 290.035 674.804 290.758 693.473 291.366 712.013 291.751 730.318 291.953
0.049  559.68 290.031 578.444 287.221 597.891 287.685 617.153 288.298 636.408 289.021 655.452 289.738 674.319 290.388 693.069 290.877 711.513 291.314 729.794 291.525
0.05  559.383 290.118 578.148 287.21 597.555 287.611 616.829 288.16 636.03 288.794 655.037 289.446 673.888 290.072 692.532 290.53 711.082 290.865 729.355 291.063
0.051  559.061 290.184 577.817 287.251 597.155 287.533 616.469 288.069 635.583 288.591 654.603 289.16 673.434 289.704 692.079 290.16 710.578 290.484 728.832 290.698
0.052  558.728 290.291 577.475 287.276 596.837 287.522 616.097 287.901 635.175 288.359 654.192 288.937 673.007 289.353 691.649 289.792 710.083 290.093 728.363 290.291
0.053  558.455 290.324 577.162 287.285 596.513 287.447 615.728 287.771 634.798 288.182 653.784 288.656 672.567 289.074 691.19 289.423 709.652 289.706 727.927 289.862
0.054  558.094 290.415 576.827 287.316 596.133 287.419 615.354 287.643 634.462 287.978 653.337 288.398 672.17 288.739 690.757 289.123 709.184 289.388 727.404 289.457
0.055  557.794 290.549 576.539 287.346 595.81 287.406 614.996 287.526 634.068 287.793 652.969 288.123 671.732 288.443 690.346 288.752 708.745 289.02 726.921 289.106
0.056  557.513 290.58 576.227 287.394 595.464 287.33 614.625 287.424 633.608 287.648 652.561 287.955 671.298 288.191 689.884 288.483 708.323 288.68 726.54 288.782
0.057  557.195 290.65 575.895 287.412 595.119 287.28 614.239 287.326 633.281 287.451 652.125 287.692 670.884 287.921 689.489 288.172 707.875 288.317 726.042 288.403
0.058  556.888 290.746 575.574 287.473 594.786 287.23 613.92 287.226 632.916 287.304 651.798 287.462 670.461 287.638 689.013 287.878 707.462 287.942 725.602 288.07
0.059  556.56 290.81 575.249 287.491 594.459 287.212 613.53 287.154 632.53 287.145 651.383 287.3 670.095 287.414 688.643 287.58 706.984 287.752 725.169 287.806
0.06  556.226 290.927 574.929 287.55 594.111 287.236 613.229 287.032 632.217 287.05 650.986 287.046 669.654 287.16 688.222 287.272 706.563 287.395 724.714 287.48
0.061  555.91 291.035 574.612 287.577 593.78 287.168 612.852 286.949 631.766 286.888 650.602 286.932 669.238 286.963 687.782 287.048 706.113 287.124 724.316 287.233
0.062  555.623 291.088 574.313 287.603 593.446 287.182 612.541 286.877 631.434 286.773 650.254 286.729 668.887 286.728 687.36 286.786 705.721 286.889 723.906 286.919
0.063  555.332 291.178 573.976 287.698 593.126 287.157 612.201 286.838 631.094 286.659 649.866 286.474 668.504 286.515 687 286.556 705.297 286.594 723.434 286.616
0.064  555.015 291.31 573.674 287.759 592.804 287.131 611.841 286.742 630.743 286.503 649.498 286.43 668.14 286.331 686.553 286.335 704.896 286.337 722.997 286.38
0.065  554.715 291.399 573.378 287.789 592.475 287.124 611.512 286.702 630.368 286.391 649.096 286.221 667.723 286.123 686.171 286.108 704.508 286.144 722.608 286.128
0.066  554.432 291.483 573.06 287.852 592.152 287.145 611.136 286.638 630.021 286.321 648.768 286.089 667.331 285.962 685.817 285.876 704.058 285.872 722.228 285.858
0.067  554.136 291.577 572.748 287.959 591.868 287.172 610.847 286.587 629.641 286.205 648.376 285.982 666.986 285.787 685.367 285.694 703.69 285.719 721.854 285.686
0.068  553.864 291.674 572.477 288.012 591.508 287.135 610.511 286.57 629.359 286.123 648.012 285.851 666.571 285.655 684.99 285.525 703.28 285.486 721.43 285.458
0.069  553.569 291.713 572.162 288.06 591.205 287.172 610.118 286.493 628.946 286.032 647.67 285.723 666.22 285.487 684.62 285.311 702.909 285.225 721.017 285.252
0.07  553.231 291.907 571.844 288.156 590.902 287.168 609.821 286.503 628.647 285.977 647.268 285.602 665.84 285.316 684.234 285.165 702.49 285.06 720.647 285.059
0.071  552.96 291.988 571.516 288.207 590.569 287.249 609.498 286.485 628.348 285.912 646.969 285.514 665.465 285.198 683.849 285 702.156 284.9 720.265 284.869
0.072  552.651 292.034 571.202 288.263 590.256 287.222 609.193 286.47 627.97 285.804 646.63 285.39 665.099 285.091 683.494 284.844 701.736 284.743 719.843 284.71
0.073  552.382 292.16 570.969 288.347 589.96 287.302 608.844 286.437 627.605 285.787 646.254 285.276 664.769 284.926 683.151 284.709 701.353 284.588 719.479 284.527
0.074  552.078 292.256 570.659 288.438 589.654 287.289 608.515 286.483 627.279 285.753 645.924 285.185 664.369 284.806 682.758 284.581 700.943 284.437 719.047 284.36
0.075  551.777 292.349 570.321 288.531 589.385 287.372 608.205 286.422 626.977 285.701 645.558 285.122 663.983 284.724 682.389 284.414 700.62 284.259 718.717 284.216
0.076  551.443 292.41 570.036 288.573 589.014 287.421 607.9 286.386 626.581 285.647 645.21 285.066 663.678 284.614 681.989 284.364 700.233 284.136 718.338 284.063
0.077  551.195 292.521 569.764 288.656 588.711 287.403 607.573 286.408 626.275 285.624 644.841 284.958 663.325 284.5 681.632 284.205 699.835 284.067 717.908 283.94
0.078  550.897 292.643 569.445 288.717 588.398 287.437 607.216 286.403 625.984 285.617 644.528 284.94 662.956 284.453 681.252 284.133 699.493 283.866 717.581 283.812
0.079  550.617 292.713 569.124 288.802 588.075 287.51 606.963 286.422 625.606 285.577 644.175 284.88 662.65 284.393 680.891 283.965 699.115 283.817 717.175 283.715
0.08  550.285 292.818 568.867 288.933 587.785 287.532 606.583 286.428 625.282 285.519 643.838 284.858 662.258 284.3 680.559 283.922 698.741 283.685 716.81 283.591
0.081  550.003 292.887 568.553 288.973 587.488 287.622 606.285 286.465 624.939 285.512 643.497 284.749 661.916 284.22 680.222 283.872 698.445 283.599 716.474 283.508
0.082  549.719 292.952 568.262 289.071 587.191 287.615 605.94 286.492 624.57 285.547 643.162 284.746 661.585 284.197 679.834 283.761 698.024 283.481 716.113 283.412
0.083  549.381 293.049 567.957 289.134 586.9 287.659 605.65 286.489 624.319 285.521 642.817 284.716 661.237 284.145 679.497 283.7 697.66 283.395 715.702 283.307
0.084  549.042 293.126 567.644 289.212 586.533 287.745 605.307 286.503 623.955 285.531 642.483 284.709 660.859 284.108 679.146 283.604 697.34 283.344 715.369 283.27
0.085  548.763 293.218 567.349 289.283 586.248 287.778 605.013 286.573 623.644 285.501 642.123 284.677 660.521 283.988 678.758 283.56 696.96 283.246 715.002 283.169
0.086  548.503 293.332 567.022 289.336 585.928 287.832 604.664 286.567 623.313 285.525 641.82 284.625 660.176 284.002 678.421 283.542 696.607 283.213 714.631 283.121
0.087  548.18 293.4 566.746 289.441 585.617 287.867 604.33 286.595 622.96 285.512 641.454 284.614 659.846 283.961 678.141 283.463 696.22 283.154 714.274 283.036
0.088  547.873 293.463 566.4 289.496 585.319 287.889 604.019 286.584 622.648 285.518 641.143 284.615 659.469 283.941 677.756 283.439 695.902 283.145 713.916 283.048
0.089  547.564 293.554 566.096 289.548 584.957 287.991 603.725 286.639 622.334 285.522 640.802 284.628 659.191 283.912 677.418 283.384 695.545 283.123 713.594 282.951
0.09  547.231 293.618 565.804 289.688 584.619 288.035 603.387 286.696 621.973 285.518 640.499 284.595 658.821 283.862 677.065 283.33 695.176 283.081 713.211 282.919
0.091  546.934 293.712 565.469 289.747 584.351 288.1 603.103 286.721 621.647 285.559 640.109 284.624 658.473 283.888 676.723 283.364 694.815 283.077 712.879 282.881
0.092  546.606 293.802 565.154 289.82 584.08 288.18 602.75 286.774 621.34 285.598 639.796 284.643 658.124 283.865 676.364 283.326 694.47 282.989 712.482 282.858
0.093  546.315 293.906 564.91 289.905 583.674 288.272 602.445 286.873 621.002 285.607 639.451 284.63 657.777 283.891 675.993 283.313 694.164 282.951 712.203 282.842
0.094  545.998 293.945 564.536 289.983 583.394 288.311 602.064 286.888 620.649 285.626 639.094 284.69 657.468 283.884 675.689 283.322 693.809 282.968 711.854 282.822
0.095  545.684 294.052 564.234 290.103 583.09 288.378 601.752 286.901 620.345 285.655 638.758 284.654 657.094 283.853 675.344 283.315 693.472 282.946 711.475 282.786
0.096  545.326 294.123 563.887 290.205 582.76 288.438 601.465 286.956 619.966 285.713 638.46 284.679 656.751 283.873 674.962 283.311 693.07 282.922 711.111 282.8
0.097  544.998 294.235 563.635 290.257 582.408 288.517 601.084 287.003 619.687 285.775 638.12 284.721 656.402 283.935 674.66 283.314 692.743 282.957 710.786 282.789
0.098  544.702 294.302 563.278 290.361 582.099 288.565 600.778 287.072 619.326 285.805 637.758 284.696 656.041 283.902 674.302 283.329 692.389 282.937 710.465 282.746
0.099  544.377 294.398 562.908 290.439 581.78 288.641 600.452 287.117 619.038 285.85 637.43 284.789 655.707 283.909 673.943 283.33 692.069 282.965 710.063 282.791
0.1  544.045 294.477 562.579 290.561 581.423 288.748 600.078 287.23 618.663 285.898 637.096 284.81 655.391 283.934 673.597 283.371 691.726 283.001 709.742 282.773
0.101  543.715 294.541 562.31 290.619 581.125 288.824 599.779 287.271 618.325 285.919 636.775 284.853 655.085 284.008 673.259 283.387 691.36 282.988 709.414 282.843
0.102  543.416 294.666 561.957 290.73 580.774 288.918 599.457 287.337 617.983 285.952 636.46 284.889 654.743 284.019 672.901 283.374 691.023 283.027 709.076 282.806
0.103  543.079 294.719 561.674 290.872 580.447 288.985 599.121 287.424 617.66 286.055 636.071 284.951 654.372 284.084 672.62 283.429 690.645 283.037 708.692 282.851
0.104  542.707 294.783 561.365 290.97 580.152 289.092 598.761 287.458 617.336 286.128 635.747 285.022 654.009 284.089 672.242 283.422 690.335 283.089 708.335 282.863
0.105  542.418 294.904 561.024 291.093 579.81 289.223 598.502 287.551 617.036 286.198 635.428 285.044 653.735 284.147 671.928 283.52 690.029 283.079 708.044 282.893
0.106  542.105 295.085 560.736 291.274 579.525 289.283 598.181 287.662 616.691 286.252 635.076 285.109 653.42 284.215 671.586 283.54 689.663 283.151 707.685 282.941
0.107  541.81 295.15 560.414 291.372 579.211 289.437 597.86 287.73 616.341 286.355 634.752 285.164 653.058 284.23 671.202 283.573 689.324 283.141 707.372 282.999
0.108  541.475 295.29 560.103 291.452 578.871 289.52 597.521 287.846 616.026 286.425 634.446 285.202 652.713 284.276 670.929 283.646 688.961 283.225 706.999 282.993
0.109  541.119 295.322 559.76 291.523 578.529 289.593 597.203 287.931 615.725 286.497 634.087 285.287 652.356 284.412 670.524 283.66 688.64 283.271 706.648 283.044
0.11  540.779 295.417 559.407 291.641 578.196 289.678 596.823 287.975 615.365 286.535 633.753 285.392 652.026 284.422 670.18 283.787 688.282 283.255 706.343 283.124
0.111  540.423 295.492 559.096 291.739 577.88 289.78 596.497 288.096 614.987 286.621 633.433 285.445 651.658 284.5 669.879 283.806 687.971 283.345 705.959 283.189
0.112  540.123 295.612 558.733 291.84 577.52 289.882 596.213 288.124 614.742 286.745 633.105 285.536 651.326 284.578 669.534 283.9 687.596 283.418 705.657 283.251
0.113  539.787 295.653 558.432 291.946 577.166 289.986 595.903 288.238 614.387 286.825 632.707 285.6 650.995 284.647 669.195 283.923 687.278 283.511 705.28 283.277
0.114  539.414 295.737 558.094 292.057 576.881 290.068 595.528 288.362 613.994 286.911 632.409 285.653 650.692 284.701 668.882 283.99 686.943 283.56 704.927 283.38
0.115  539.069 295.814 557.726 292.158 576.52 290.123 595.166 288.422 613.68 286.994 632.032 285.748 650.356 284.796 668.489 284.102 686.594 283.622 704.612 283.432
0.116  538.729 295.867 557.429 292.296 576.149 290.283 594.801 288.526 613.345 287.063 631.722 285.824 650.019 284.864 668.15 284.147 686.264 283.7 704.262 283.527
0.117  538.41 295.994 557.087 292.381 575.856 290.386 594.514 288.625 613.015 287.158 631.365 285.925 649.661 284.953 667.837 284.265 685.909 283.778 703.922 283.592
0.118  537.991 296.069 556.725 292.482 575.481 290.498 594.126 288.744 612.637 287.248 631.017 286.025 649.291 285.021 667.475 284.313 685.575 283.847 703.596 283.644
0.119  537.704 296.148 556.407 292.653 575.154 290.592 593.799 288.862 612.324 287.346 630.666 286.094 648.967 285.134 667.116 284.411 685.222 283.95 703.264 283.701
0.12  537.325 296.244 556.021 292.744 574.828 290.683 593.477 288.922 611.94 287.459 630.315 286.227 648.59 285.211 666.835 284.479 684.899 284.053 702.912 283.817
