# Gnuplot File : positions of 1 particle(s) Monitored
# 1st Column : time, others : particle(s) number 0 
0.01	0.355347 0.249981 0.30738 0.142527 0.698948 -0.425645 -0.556762	
0.02	0.352871 0.249131 0.306672 0.143788 0.700887 -0.426707 -0.553175	
0.03	0.34959 0.247525 0.306519 0.149231 0.702772 -0.427424 -0.548772	
0.04	0.346385 0.245681 0.306744 0.155705 0.705087 -0.427098 -0.544238	
0.05	0.343053 0.243804 0.306718 0.161895 0.708457 -0.426029 -0.538867	
0.06	0.339403 0.241894 0.306554 0.168057 0.712097 -0.424142 -0.533645	
0.07	0.335836 0.240134 0.306044 0.175989 0.714966 -0.421918 -0.528995	
0.08	0.332625 0.238442 0.305278 0.183713 0.716409 -0.420644 -0.52542	
0.09	0.329438 0.236181 0.304818 0.189842 0.716059 -0.421489 -0.523036	
0.1	0.326549 0.232824 0.30469 0.196372 0.71541 -0.422549 -0.520653	
0.11	0.324227 0.228595 0.304748 0.201785 0.71313 -0.426571 -0.518427	
0.12	0.322192 0.223063 0.304424 0.203187 0.711308 -0.432768 -0.515235	
0.13	0.32048 0.216592 0.303634 0.199017 0.707273 -0.444182 -0.512698	
0.14	0.318824 0.209693 0.302432 0.204962 0.711017 -0.439784 -0.508955	
0.15	0.31737 0.203235 0.301166 0.214366 0.716702 -0.429617 -0.505781	
0.16	0.315837 0.195697 0.299786 0.223751 0.722359 -0.418303 -0.503145	
0.17	0.314348 0.187042 0.298817 0.229917 0.726103 -0.411478 -0.500598	
0.18	0.313067 0.175854 0.298063 0.236224 0.727999 -0.408218 -0.497568	
0.19	0.311936 0.162849 0.297488 0.24329 0.729438 -0.404395 -0.495171	
0.2	0.310669 0.149528 0.296846 0.250996 0.730018 -0.400587 -0.493563	
0.21	0.308759 0.13487 0.296035 0.262498 0.730063 -0.393382 -0.493308	
0.22	0.306197 0.120334 0.295145 0.275372 0.730226 -0.381939 -0.495039	
0.23	0.303089 0.106091 0.29412 0.286282 0.726124 -0.376146 -0.4993	
0.24	0.299544 0.0933918 0.29316 0.296413 0.720677 -0.372936 -0.503669	
0.25	0.295156 0.0811918 0.292313 0.305753 0.71349 -0.372357 -0.508721	
0.26	0.290324 0.0704652 0.29147 0.317003 0.70775 -0.369911 -0.51163	
0.27	0.284892 0.0594231 0.290328 0.330761 0.701962 -0.366573 -0.513295	
0.28	0.27918 0.0487352 0.288546 0.342567 0.695778 -0.36517 -0.514967	
0.29	0.272992 0.0388607 0.28637 0.353675 0.688926 -0.364525 -0.517123	
0.3	0.266208 0.0292026 0.283886 0.366559 0.681986 -0.36227 -0.518932	
0.31	0.259369 0.0206624 0.281492 0.375509 0.674227 -0.365117 -0.520673	
0.32	0.253504 0.0132461 0.279567 0.385908 0.66581 -0.366002 -0.523273	
0.33	0.248234 0.00708792 0.278041 0.393037 0.658949 -0.369126 -0.524456	
0.34	0.24241 0.000486735 0.27607 0.400392 0.652035 -0.370629 -0.526469	
0.35	0.236352 -0.00625443 0.273952 0.407326 0.644575 -0.372602 -0.528939	
0.36	0.230454 -0.0123543 0.272308 0.415697 0.636029 -0.372838 -0.532593	
0.37	0.225248 -0.0176686 0.270997 0.421352 0.627996 -0.37577 -0.535612	
0.38	0.220223 -0.021659 0.269374 0.426895 0.619958 -0.377399 -0.539428	
0.39	0.214685 -0.025265 0.267171 0.42666 0.612816 -0.384001 -0.543103	
0.4	0.208503 -0.0283809 0.264235 0.425244 0.60638 -0.39024 -0.546977	
0.41	0.201883 -0.0313402 0.260894 0.427141 0.601092 -0.3909 -0.550851	
0.42	0.195348 -0.0337461 0.258656 0.42821 0.595337 -0.394904 -0.553409	
0.43	0.188695 -0.0354718 0.256536 0.428561 0.589547 -0.400089 -0.555606	
0.44	0.18045 -0.036695 0.253561 0.426865 0.584496 -0.406142 -0.557853	
0.45	0.173321 -0.0374473 0.25065 0.428345 0.577665 -0.409404 -0.561438	
0.46	0.166162 -0.0377984 0.248084 0.430515 0.56924 -0.411846 -0.566574	
0.47	0.158634 -0.0378991 0.245428 0.430703 0.5613 -0.416252 -0.571114	
0.48	0.152182 -0.0378115 0.242929 0.427667 0.555916 -0.421594 -0.574732	
0.49	0.145686 -0.0373699 0.240511 0.426345 0.549693 -0.425057 -0.579132	
0.5	0.140152 -0.0366274 0.238646 0.427621 0.543278 -0.425164 -0.584145	
0.51	0.134801 -0.035434 0.236678 0.428489 0.53704 -0.424901 -0.589444	
0.52	0.130082 -0.0336684 0.235137 0.431523 0.529902 -0.423811 -0.594454	
0.53	0.125982 -0.0319768 0.23352 0.435223 0.524134 -0.421453 -0.598533	
0.54	0.122052 -0.0302951 0.232034 0.438458 0.517796 -0.420124 -0.602609	
0.55	0.118813 -0.0289095 0.230643 0.43968 0.513482 -0.419719 -0.605685	
0.56	0.116148 -0.0277442 0.229504 0.440806 0.509618 -0.419807 -0.608063	
0.57	0.113791 -0.026667 0.228637 0.44182 0.506464 -0.41903 -0.610495	
0.58	0.111763 -0.0257725 0.227824 0.442549 0.504098 -0.417991 -0.612633	
0.59	0.109976 -0.0249248 0.22721 0.442727 0.50185 -0.41773 -0.614525	
0.6	0.108404 -0.0241759 0.226807 0.442446 0.500692 -0.418406 -0.615212	
0.61	0.107242 -0.0236234 0.226522 0.44162 0.499919 -0.419037 -0.616004	
0.62	0.106313 -0.0232638 0.226229 0.440224 0.499497 -0.420059 -0.616649	
0.63	0.10573 -0.0230537 0.225981 0.439486 0.498809 -0.420611 -0.617356	
0.64	0.105214 -0.0227577 0.226017 0.439779 0.497804 -0.421498 -0.617353	
0.65	0.105126 -0.0227539 0.225953 0.438891 0.497277 -0.421782 -0.618216	
0.66	0.105039 -0.0227502 0.225889 0.439449 0.496471 -0.421614 -0.618581	
0.67	0.105039 -0.0227502 0.225889 0.440593 0.494883 -0.420845 -0.619562	
0.68	0.105039 -0.0227502 0.225889 0.441227 0.494134 -0.42006 -0.620242	
0.69	0.105039 -0.0227502 0.225889 0.44186 0.493383 -0.419274 -0.62092	
0.7	0.105148 -0.0228427 0.225734 0.442369 0.49279 -0.418476 -0.621566	
0.71	0.105209 -0.0228946 0.225807 0.441241 0.492792 -0.419323 -0.621796	
0.72	0.105209 -0.0228946 0.225807 0.440801 0.492981 -0.419731 -0.621684	
0.73	0.105209 -0.0228946 0.225807 0.440675 0.492888 -0.420536 -0.621303	
0.74	0.105209 -0.0228946 0.225807 0.44036 0.493169 -0.420138 -0.621571	
0.75	0.105358 -0.0229502 0.225945 0.441318 0.493041 -0.420282 -0.620897	
0.76	0.105419 -0.023002 0.226019 0.441002 0.493323 -0.419885 -0.621165	
0.77	0.10548 -0.0230538 0.226092 0.442006 0.493228 -0.419842 -0.620556	
0.78	0.10548 -0.0230538 0.226092 0.442006 0.493228 -0.419842 -0.620556	
0.79	0.105541 -0.0231056 0.226166 0.442253 0.493603 -0.419811 -0.620103	
0.8	0.105541 -0.0231056 0.226166 0.443133 0.493226 -0.418994 -0.620327	
0.81	0.105602 -0.0231573 0.22624 0.443572 0.493037 -0.418585 -0.620439	
0.82	0.105602 -0.0231573 0.22624 0.444012 0.492848 -0.418176 -0.620551	
0.83	0.105493 -0.0230648 0.226395 0.444821 0.492874 -0.417747 -0.620239	
0.84	0.10558 -0.0230685 0.226459 0.445407 0.492086 -0.417145 -0.620849	
0.85	0.10558 -0.0230685 0.226459 0.445653 0.492463 -0.417112 -0.620396	
0.86	0.105471 -0.022976 0.226615 0.446216 0.492113 -0.416715 -0.620536	
0.87	0.105362 -0.0228833 0.22677 0.446778 0.491762 -0.416318 -0.620676	
0.88	0.105144 -0.0226978 0.227081 0.446587 0.49163 -0.416754 -0.620625	
0.89	0.104947 -0.0226012 0.227172 0.445001 0.492259 -0.418221 -0.620279	
0.9	0.104581 -0.0223597 0.227345 0.44329 0.49235 -0.41973 -0.620413	
0.91	0.104174 -0.0221553 0.227226 0.442185 0.492821 -0.420599 -0.620238	
0.92	0.103856 -0.0219545 0.22717 0.441474 0.49307 -0.421243 -0.62011	
0.93	0.103401 -0.0217081 0.227279 0.440934 0.493192 -0.421716 -0.620077	
0.94	0.103083 -0.0215068 0.227223 0.441104 0.493065 -0.421544 -0.620173	
0.95	0.102738 -0.021353 0.227176 0.441322 0.492973 -0.421188 -0.620334	
0.96	0.102373 -0.0211096 0.227349 0.441616 0.492685 -0.42103 -0.62046	
0.97	0.102116 -0.0209597 0.227367 0.442036 0.492931 -0.42083 -0.620101	
0.98	0.101967 -0.0209033 0.227229 0.442083 0.492965 -0.420646 -0.620166	
0.99	0.101859 -0.0208095 0.227385 0.442015 0.493364 -0.42104 -0.619629	
1	0.101859 -0.0208095 0.227385 0.442015 0.493364 -0.42104 -0.619629	
1.01	0.10175 -0.0207157 0.22754 0.44258 0.493015 -0.420644 -0.619772	
1.02	0.10175 -0.0207157 0.22754 0.442829 0.493387 -0.420617 -0.619317	
1.03	0.101642 -0.0206217 0.227695 0.443392 0.493039 -0.420221 -0.61946	
1.04	0.101642 -0.0206217 0.227695 0.444081 0.493223 -0.419784 -0.619116	
1.05	0.101642 -0.0206217 0.227695 0.444081 0.493223 -0.419784 -0.619116	
1.06	0.101534 -0.0205277 0.227851 0.44408 0.492966 -0.420602 -0.618766	
1.07	0.101534 -0.0205277 0.227851 0.442636 0.493253 -0.421051 -0.619266	
1.08	0.101425 -0.0204337 0.228006 0.442319 0.49328 -0.421473 -0.619185	
1.09	0.101425 -0.0204337 0.228006 0.44251 0.492721 -0.421091 -0.619753	
1.1	0.101425 -0.0204337 0.228006 0.443074 0.492809 -0.42146 -0.619028	
1.11	0.101425 -0.0204337 0.228006 0.442951 0.492533 -0.420683 -0.619865	
1.12	0.101466 -0.0203959 0.228299 0.443782 0.491867 -0.420868 -0.619673	
1.13	0.101567 -0.02041 0.228666 0.444176 0.491206 -0.419879 -0.620585	
1.14	0.101715 -0.0204662 0.228803 0.444194 0.490515 -0.420488 -0.620706	
1.15	0.101952 -0.0205265 0.229005 0.444475 0.490916 -0.420024 -0.620502	
1.16	0.10225 -0.0206384 0.22928 0.444629 0.491223 -0.420365 -0.619918	
1.17	0.102459 -0.0207461 0.229491 0.445022 0.491001 -0.42014 -0.619964	
1.18	0.102757 -0.0208575 0.229766 0.445175 0.491308 -0.420481 -0.61938	
1.19	0.103143 -0.0209726 0.230105 0.445788 0.490735 -0.42102 -0.619027	
1.2	0.103503 -0.0211349 0.230454 0.44582 0.490766 -0.420584 -0.619276	
1.21	0.103889 -0.021249 0.230792 0.446364 0.490853 -0.420698 -0.618737	
1.22	0.104296 -0.0214532 0.230912 0.445952 0.49151 -0.421433 -0.618012	
1.23	0.104594 -0.0215629 0.231187 0.446416 0.491533 -0.422167 -0.617157	
1.24	0.105063 -0.0218177 0.23138 0.446569 0.492102 -0.421687 -0.616922	
1.25	0.10545 -0.0219301 0.231718 0.44674 0.491717 -0.422634 -0.616456	
1.26	0.105919 -0.0221838 0.231911 0.446082 0.491998 -0.423398 -0.616184	
1.27	0.106219 -0.0222922 0.232186 0.44623 0.492306 -0.423735 -0.615598	
1.28	0.106627 -0.0224941 0.232305 0.4455 0.493246 -0.424076 -0.615141	
1.29	0.106973 -0.0226448 0.23235 0.445084 0.493899 -0.424809 -0.614412	
1.3	0.107123 -0.0226986 0.232488 0.444838 0.494423 -0.425372 -0.613778	
1.31	0.107273 -0.0227523 0.232625 0.444664 0.494289 -0.426358 -0.613328	
1.32	0.107335 -0.0228031 0.232699 0.44415 0.495129 -0.426346 -0.613031	
1.33	0.107593 -0.0229505 0.232681 0.44442 0.495075 -0.426105 -0.613047	
1.34	0.107681 -0.0229533 0.232744 0.444813 0.494859 -0.425879 -0.613094	
1.35	0.107681 -0.0229533 0.232744 0.445812 0.494766 -0.425829 -0.612477	
1.36	0.107573 -0.0228596 0.232899 0.446177 0.494978 -0.425812 -0.612051	
1.37	0.107635 -0.0229103 0.232973 0.446543 0.495455 -0.424978 -0.611978	
1.38	0.107635 -0.0229103 0.232973 0.446983 0.495273 -0.424567 -0.61209	
1.39	0.107723 -0.0229131 0.233036 0.447132 0.494683 -0.424371 -0.612593	
1.4	0.107785 -0.0229638 0.23311 0.44813 0.494589 -0.424318 -0.611977	
1.41	0.107873 -0.0229665 0.233173 0.448521 0.494373 -0.42409 -0.612023	
1.42	0.107935 -0.0230171 0.233247 0.448884 0.494852 -0.423254 -0.611948	
1.43	0.108086 -0.0230705 0.233384 0.448836 0.49482 -0.423438 -0.611882	
1.44	0.108174 -0.0230731 0.233447 0.449104 0.4945 -0.424013 -0.611546	
1.45	0.108236 -0.0231237 0.233521 0.449344 0.494875 -0.423979 -0.611089	
1.46	0.108236 -0.0231237 0.233521 0.449543 0.494317 -0.423601 -0.611657	
1.47	0.108324 -0.0231263 0.233584 0.449178 0.494572 -0.423393 -0.611862	
1.48	0.108386 -0.0231769 0.233658 0.449494 0.494285 -0.423784 -0.611591	
1.49	0.108278 -0.0230831 0.233813 0.450056 0.49394 -0.423387 -0.611732	
1.5	0.108278 -0.0230831 0.233813 0.450056 0.49394 -0.423387 -0.611732	
1.51	0.108278 -0.0230831 0.233813 0.44998 0.494604 -0.422962 -0.611546	
1.52	0.10817 -0.0229893 0.233968 0.450418 0.494154 -0.423367 -0.611306	
1.53	0.10817 -0.0229893 0.233968 0.450658 0.49453 -0.423333 -0.610849	
1.54	0.10817 -0.0229893 0.233968 0.451137 0.49528 -0.423265 -0.609934	
1.55	0.10817 -0.0229893 0.233968 0.451259 0.495386 -0.422461 -0.610315	
1.56	0.10817 -0.0229893 0.233968 0.451575 0.495098 -0.422851 -0.610045	
1.57	0.108062 -0.0228953 0.234123 0.451937 0.495311 -0.422832 -0.609617	
1.58	0.108062 -0.0228953 0.234123 0.452058 0.495418 -0.422028 -0.609998	
1.59	0.108062 -0.0228953 0.234123 0.45162 0.4956 -0.422442 -0.609887	
1.6	0.108062 -0.0228953 0.234123 0.4513 0.49605 -0.423625 -0.608937	
1.61	0.107954 -0.0228013 0.234278 0.450108 0.496432 -0.424882 -0.608633	
1.62	0.107954 -0.0228013 0.234278 0.449669 0.496613 -0.425295 -0.608521	
1.63	0.108042 -0.0228039 0.234341 0.449619 0.496581 -0.425479 -0.608455	
1.64	0.108042 -0.0228039 0.234341 0.448981 0.497315 -0.426272 -0.607771	
1.65	0.108042 -0.0228039 0.234341 0.448542 0.497495 -0.426685 -0.607658	
1.66	0.107934 -0.0227099 0.234496 0.448465 0.497885 -0.427081 -0.607117	
1.67	0.107934 -0.0227099 0.234496 0.448465 0.497885 -0.427081 -0.607117	
1.68	0.107826 -0.0226157 0.234651 0.448509 0.498382 -0.426677 -0.606961	
1.69	0.107826 -0.0226157 0.234651 0.448148 0.497903 -0.42751 -0.607035	
1.7	0.107826 -0.0226157 0.234651 0.448388 0.498275 -0.427478 -0.606575	
1.71	0.107826 -0.0226157 0.234651 0.448388 0.498275 -0.427478 -0.606575	
1.72	0.107826 -0.0226157 0.234651 0.447949 0.498453 -0.427891 -0.606461	
1.73	0.107826 -0.0226157 0.234651 0.447949 0.498453 -0.427891 -0.606461	
1.74	0.107826 -0.0226157 0.234651 0.44775 0.499003 -0.428272 -0.605887	
1.75	0.107826 -0.0226157 0.234651 0.44707 0.498811 -0.428717 -0.606233	
1.76	0.107718 -0.0225215 0.234806 0.446873 0.498935 -0.428345 -0.606539	
1.77	0.107718 -0.0225215 0.234806 0.446752 0.498827 -0.429145 -0.60615	
1.78	0.107718 -0.0225215 0.234806 0.447432 0.49902 -0.428701 -0.605804	
1.79	0.10763 -0.0225189 0.234743 0.447043 0.499231 -0.428931 -0.605755	
1.8	0.107568 -0.0224684 0.234669 0.446724 0.499517 -0.428543 -0.606029	
1.81	0.10746 -0.0223741 0.234824 0.446726 0.499247 -0.429359 -0.605672	
1.82	0.10746 -0.0223741 0.234824 0.445845 0.499603 -0.430184 -0.605443	
1.83	0.107352 -0.0222797 0.234979 0.444845 0.499426 -0.431054 -0.605706	
1.84	0.107202 -0.0222265 0.234842 0.444896 0.49946 -0.430871 -0.605771	
1.85	0.107032 -0.0220815 0.234924 0.444819 0.499844 -0.431269 -0.605226	
1.86	0.107032 -0.0220815 0.234924 0.44506 0.500213 -0.43124 -0.604765	
1.87	0.106944 -0.0220787 0.23486 0.445793 0.500439 -0.430615 -0.604483	
1.88	0.106774 -0.0219336 0.234942 0.445915 0.500277 -0.430631 -0.604516	
1.89	0.106774 -0.0219336 0.234942 0.446597 0.500469 -0.430188 -0.604169	
1.9	0.106686 -0.0219308 0.234878 0.446648 0.500502 -0.430005 -0.604234	
1.91	0.106624 -0.0218802 0.234805 0.446648 0.500502 -0.430005 -0.604234	
1.92	0.106624 -0.0218802 0.234805 0.446208 0.500679 -0.430418 -0.604119	
1.93	0.106536 -0.0218774 0.234741 0.446259 0.500712 -0.430235 -0.604184	
1.94	0.106536 -0.0218774 0.234741 0.446259 0.500712 -0.430235 -0.604184	
1.95	0.106536 -0.0218774 0.234741 0.44694 0.500904 -0.429792 -0.603837	
1.96	0.106536 -0.0218774 0.234741 0.447819 0.50055 -0.428965 -0.604067	
1.97	0.106536 -0.0218774 0.234741 0.447819 0.50055 -0.428965 -0.604067	
1.98	0.106536 -0.0218774 0.234741 0.447819 0.50055 -0.428965 -0.604067	
1.99	0.106536 -0.0218774 0.234741 0.448018 0.500003 -0.428582 -0.604644	
2	0.106536 -0.0218774 0.234741 0.447337 0.499812 -0.429026 -0.604991	
2.01	0.106474 -0.0218267 0.234668 0.447337 0.499812 -0.429026 -0.604991	
2.02	0.106366 -0.0217321 0.234822 0.4477 0.500019 -0.429012 -0.604561	
2.03	0.106278 -0.0217292 0.234759 0.447992 0.500421 -0.428798 -0.604164	
2.04	0.106216 -0.0216785 0.234685 0.447992 0.500421 -0.428798 -0.604164	
2.05	0.106109 -0.0215839 0.23484 0.448355 0.500628 -0.428784 -0.603733	
2.06	0.105958 -0.0215302 0.234703 0.447967 0.500838 -0.429014 -0.603683	
2.07	0.105958 -0.0215302 0.234703 0.447967 0.500838 -0.429014 -0.603683	
2.08	0.105958 -0.0215302 0.234703 0.447647 0.501124 -0.428629 -0.603957	
2.09	0.105701 -0.0213818 0.234721 0.448141 0.500709 -0.428848 -0.60378	
2.1	0.105701 -0.0213818 0.234721 0.448141 0.500709 -0.428848 -0.60378	
2.11	0.105701 -0.0213818 0.234721 0.448141 0.500709 -0.428848 -0.60378	
2.12	0.105701 -0.0213818 0.234721 0.448141 0.500709 -0.428848 -0.60378	
2.13	0.105443 -0.0212331 0.234739 0.448314 0.50058 -0.428681 -0.603876	
2.14	0.105293 -0.0211793 0.234602 0.447927 0.50079 -0.428912 -0.603826	
2.15	0.105293 -0.0211793 0.234602 0.447444 0.500054 -0.428971 -0.604751	
2.16	0.105293 -0.0211793 0.234602 0.446762 0.499863 -0.429414 -0.605099	
2.17	0.105293 -0.0211793 0.234602 0.447444 0.500054 -0.428971 -0.604751	
2.18	0.105205 -0.0211762 0.234539 0.447495 0.500087 -0.428788 -0.604816	
2.19	0.105036 -0.0210304 0.23462 0.447859 0.500293 -0.428775 -0.604385	
2.2	0.105036 -0.0210304 0.23462 0.448539 0.500484 -0.428331 -0.604037	
2.21	0.105036 -0.0210304 0.23462 0.448539 0.500484 -0.428331 -0.604037	
2.22	0.104928 -0.0209354 0.234775 0.448222 0.500499 -0.428761 -0.603954	
2.23	0.10484 -0.0209323 0.234712 0.447835 0.500709 -0.428992 -0.603904	
2.24	0.10484 -0.0209323 0.234712 0.447395 0.500886 -0.429406 -0.603789	
2.25	0.10484 -0.0209323 0.234712 0.446956 0.501063 -0.429819 -0.603674	
2.26	0.10484 -0.0209323 0.234712 0.446472 0.500329 -0.429876 -0.604599	
2.27	0.10484 -0.0209323 0.234712 0.446472 0.500329 -0.429876 -0.604599	
2.28	0.10484 -0.0209323 0.234712 0.446714 0.500696 -0.429848 -0.604137	
2.29	0.10484 -0.0209323 0.234712 0.447153 0.500519 -0.429435 -0.604252	
2.3	0.10484 -0.0209323 0.234712 0.447153 0.500519 -0.429435 -0.604252	
2.31	0.10484 -0.0209323 0.234712 0.447153 0.500519 -0.429435 -0.604252	
2.32	0.10484 -0.0209323 0.234712 0.446714 0.500696 -0.429848 -0.604137	
2.33	0.10484 -0.0209323 0.234712 0.446472 0.500329 -0.429876 -0.604599	
2.34	0.10484 -0.0209323 0.234712 0.446032 0.500506 -0.430289 -0.604484	
2.35	0.10484 -0.0209323 0.234712 0.446032 0.500506 -0.430289 -0.604484	
2.36	0.10484 -0.0209323 0.234712 0.446714 0.500696 -0.429848 -0.604137	
2.37	0.104733 -0.0208373 0.234867 0.446396 0.500711 -0.430277 -0.604053	
2.38	0.104733 -0.0208373 0.234867 0.446396 0.500711 -0.430277 -0.604053	
2.39	0.104733 -0.0208373 0.234867 0.445911 0.499977 -0.430334 -0.604979	
2.4	0.104733 -0.0208373 0.234867 0.445471 0.500154 -0.430746 -0.604863	
2.41	0.104733 -0.0208373 0.234867 0.444787 0.499964 -0.431185 -0.60521	
2.42	0.104733 -0.0208373 0.234867 0.444787 0.499964 -0.431185 -0.60521	
2.43	0.104733 -0.0208373 0.234867 0.444787 0.499964 -0.431185 -0.60521	
2.44	0.104733 -0.0208373 0.234867 0.445471 0.500154 -0.430746 -0.604863	
2.45	0.104733 -0.0208373 0.234867 0.445471 0.500154 -0.430746 -0.604863	
2.46	0.104733 -0.0208373 0.234867 0.445911 0.499977 -0.430334 -0.604979	
2.47	0.104733 -0.0208373 0.234867 0.446154 0.500344 -0.430306 -0.604516	
2.48	0.104733 -0.0208373 0.234867 0.446154 0.500344 -0.430306 -0.604516	
2.49	0.104733 -0.0208373 0.234867 0.446594 0.500167 -0.429893 -0.604631	
2.5	0.104733 -0.0208373 0.234867 0.446836 0.500534 -0.429864 -0.604169	
2.51	0.104625 -0.0207421 0.235022 0.447639 0.500563 -0.429439 -0.603853	
2.52	0.104625 -0.0207421 0.235022 0.447881 0.50093 -0.42941 -0.603389	
2.53	0.104625 -0.0207421 0.235022 0.448123 0.501297 -0.429381 -0.602926	
2.54	0.104625 -0.0207421 0.235022 0.448561 0.501121 -0.428966 -0.603041	
2.55	0.104625 -0.0207421 0.235022 0.448364 0.501664 -0.429351 -0.602462	
2.56	0.104625 -0.0207421 0.235022 0.448364 0.501664 -0.429351 -0.602462	
2.57	0.104625 -0.0207421 0.235022 0.448605 0.50203 -0.429322 -0.601998	
2.58	0.104625 -0.0207421 0.235022 0.447969 0.502747 -0.430121 -0.601303	
2.59	0.104625 -0.0207421 0.235022 0.446212 0.503447 -0.431778 -0.600836	
2.6	0.104625 -0.0207421 0.235022 0.444892 0.503969 -0.433018 -0.600484	
2.61	0.104625 -0.0207421 0.235022 0.444452 0.504143 -0.433431 -0.600366	
2.62	0.104625 -0.0207421 0.235022 0.444695 0.504506 -0.433404 -0.599901	
2.63	0.104625 -0.0207421 0.235022 0.444452 0.504143 -0.433431 -0.600366	
2.64	0.104625 -0.0207421 0.235022 0.444452 0.504143 -0.433431 -0.600366	
2.65	0.104625 -0.0207421 0.235022 0.444695 0.504506 -0.433404 -0.599901	
2.66	0.104625 -0.0207421 0.235022 0.445135 0.504333 -0.432991 -0.600019	
2.67	0.104625 -0.0207421 0.235022 0.444695 0.504506 -0.433404 -0.599901	
2.68	0.104625 -0.0207421 0.235022 0.444254 0.50468 -0.433817 -0.599782	
2.69	0.104625 -0.0207421 0.235022 0.444497 0.505043 -0.43379 -0.599317	
2.7	0.104625 -0.0207421 0.235022 0.444497 0.505043 -0.43379 -0.599317	
2.71	0.104606 -0.0206501 0.23524 0.444565 0.504848 -0.43399 -0.599285	
2.72	0.104499 -0.0205549 0.235395 0.444444 0.504323 -0.434035 -0.599784	
2.73	0.104499 -0.0205549 0.235395 0.444246 0.504859 -0.434421 -0.5992	
2.74	0.104392 -0.0204596 0.235549 0.443244 0.50468 -0.435291 -0.599462	
2.75	0.104392 -0.0204596 0.235549 0.442514 0.503591 -0.435368 -0.60086	
2.76	0.104392 -0.0204596 0.235549 0.441828 0.503401 -0.435805 -0.601207	
